Radial distance r (a.u.), Calculated helium wavefunction
0.01, 1.3141726130787124
0.02, 1.2882314716619405
0.03, 1.2628552235688137
0.04, 1.2380314256715572
0.05, 1.213747826863947
0.06, 1.1899923741006289
0.07, 1.1667532173891542
0.08, 1.1440187138293332
0.09, 1.1217774307870754
0.1, 1.1000181482832971
0.11, 1.0787298606721263
0.12, 1.057901777676914
0.13, 1.0375233248470566
0.14, 1.0175841434936492
0.15, 0.9980740901573819
0.16, 0.978983235657636
0.17, 0.9603018637678793
0.18, 0.9420204695586207
0.19, 0.9241297574458653
0.2, 0.9066206389796797
0.21, 0.8894842304047016
0.22, 0.8727118500215933
0.23, 0.8562950153759492
0.24, 0.8402254402988822
0.25, 0.8244950318213373
0.26, 0.8090958869822388
0.27, 0.7940202895486982
0.28, 0.7792607066649041
0.29, 0.7648097854447133
0.3, 0.7506603495215974
0.31, 0.7368053955682103
0.32, 0.723238089796721
0.33, 0.709951764449912
0.34, 0.6969399142919944
0.35000000000000003, 0.6841961931072605
0.36, 0.67171441021372
0.37, 0.6594885269981594
0.38, 0.6475126534783394
0.39, 0.6357810448973551
0.4, 0.6242880983546013
0.41000000000000003, 0.6130283494772731
0.42, 0.6019964691357528
0.43, 0.5911872602058361
0.44, 0.5805956543803477
0.45, 0.570216709032231
0.46, 0.5600456041309774
0.47000000000000003, 0.5500776392138129
0.48, 0.5403082304128911
0.49, 0.530732907539421
0.5, 0.5213473112254238
0.51, 0.5121471901236494
0.52, 0.5031283981659352
0.53, 0.4942868918801717
0.54, 0.4856187277658363
0.55, 0.4771200597279913
0.56, 0.4687871365694109
0.5700000000000001, 0.4606162995405325
0.58, 0.4526039799466892
0.59, 0.4447466968121071
0.6, 0.4370410546000252
0.61, 0.42948374098820175
0.62, 0.42207152469911463
0.63, 0.4148012533839783
0.64, 0.4076698515597883
0.65, 0.4006743185984574
0.66, 0.39381172676718124
0.67, 0.3870792193190362
0.68, 0.38047400863290987
0.6900000000000001, 0.3739933744017532
0.7000000000000001, 0.3676346618681708
0.71, 0.3613952801063836
0.72, 0.35527270034953373
0.73, 0.34926445436135606
0.74, 0.3433681328512144
0.75, 0.33758138393149445
0.76, 0.3319019116163799
0.77, 0.32632747436103116
0.78, 0.32085588364017287
0.79, 0.3154850025651456
0.8, 0.31021274453847064
0.81, 0.3050370719449729
0.8200000000000001, 0.29995599487855223
0.8300000000000001, 0.294967569903676
0.84, 0.29006989885071993
0.85, 0.28526112764423617
0.86, 0.28053944516333745
0.87, 0.27590308213328313
0.88, 0.27135031004750637
0.89, 0.26687944011920106
0.9, 0.2624888222617156
0.91, 0.25817684409695313
0.92, 0.25394192999101295
0.93, 0.249782540116335
0.9400000000000001, 0.2456971695396189
0.9500000000000001, 0.24168434733479333
0.96, 0.23774263572035118
0.97, 0.23387062922037255
0.98, 0.23006695384856207
0.99, 0.2263302663146802
1.0, 0.22265925325270988
1.01, 0.21905263047017037
1.02, 0.2155091422179681
1.03, 0.2120275604802113
1.04, 0.20860668428342016
1.05, 0.2052453390245819
1.06, 0.20194237581751626
1.07, 0.1986966708570306
1.08, 0.19550712480035654
1.09, 0.1923726621653791
1.1, 0.1892922307451789
1.11, 0.18626480103841064
1.12, 0.1832893656950875
1.1300000000000001, 0.18036493897731087
1.1400000000000001, 0.1774905562345252
1.1500000000000001, 0.17466527339288848
1.16, 0.17188816645834398
1.17, 0.16915833103301472
1.18, 0.16647488184452075
1.19, 0.16383695228787432
1.2, 0.16124369397957122
1.21, 0.15869427632354285
1.22, 0.1561878860886284
1.23, 0.1537237269972338
1.24, 0.15130101932486506
1.25, 0.1489189995102156
1.26, 0.14657691977552542
1.27, 0.14427404775690025
1.28, 0.14200966614431865
1.29, 0.1397830723310476
1.3, 0.1375935780722082
1.31, 0.13544050915221448
1.32, 0.1333232050608567
1.33, 0.13124101867776697
1.34, 0.12919331596504002
1.35, 0.12717947566777096
1.36, 0.1251988890223033
1.37, 0.1232509594719501
1.3800000000000001, 0.12133510238999128
1.3900000000000001, 0.11945074480974377
1.4000000000000001, 0.11759732516149733
1.41, 0.11577429301613394
1.42, 0.11398110883523836
1.43, 0.11221724372752397
1.44, 0.11048217921139179
1.45, 0.10877540698345972
1.46, 0.10709642869289078
1.47, 0.10544475572136543
1.48, 0.10381990896853677
1.49, 0.10222141864282214
1.5, 0.10064882405738149
1.51, 0.0991016734311429
1.52, 0.0975795236947344
1.53, 0.09608194030118869
1.54, 0.09460849704129431
1.55, 0.0931587758634603
1.56, 0.09173236669797692
1.57, 0.09032886728555396
1.58, 0.08894788301001351
1.59, 0.08758902673503598
1.6, 0.08625191864484194
1.61, 0.08493618608870714
1.62, 0.08364146342921
1.6300000000000001, 0.08236739189410644
1.6400000000000001, 0.08111361943174107
1.6500000000000001, 0.07987980056989749
1.6600000000000001, 0.0786655962779965
1.67, 0.07747067383255468
1.68, 0.07629470668581886
1.69, 0.07513737433748521
1.7, 0.07399836220943382
1.71, 0.07287736152338767
1.72, 0.07177406918142899
1.73, 0.07068818764929231
1.74, 0.06961942484236489
1.75, 0.06856749401432359
1.76, 0.06753211364833799
1.77, 0.06651300735077806
1.78, 0.06550990374735692
1.79, 0.06452253638164851
1.8, 0.06355064361591917
1.81, 0.06259396853421433
1.82, 0.06165225884764076
1.83, 0.06072526680179133
1.84, 0.059812749086255154
1.85, 0.05891446674616347
1.86, 0.058030185095716655
1.87, 0.05715967363364413
1.8800000000000001, 0.0563027059605496
1.8900000000000001, 0.05545905969809234
1.9000000000000001, 0.05462851640995928
1.9100000000000001, 0.05381086152458386
1.92, 0.053005884259569945
1.93, 0.05221337754777324
1.94, 0.051433137965005364
1.95, 0.05066496565931573
1.96, 0.04990866428181791
1.97, 0.04916404091901499
1.98, 0.04843090602659525
1.99, 0.04770907336465711
2.0, 0.04699835993432896
2.0100000000000002, 0.04629858591575524
2.02, 0.04560957460740697
2.0300000000000002, 0.04493115236669325
2.04, 0.04426314855183627
2.05, 0.04360539546498439
2.06, 0.04295772829652959
2.07, 0.04231998507060263
2.08, 0.04169200659171834
2.09, 0.04107363639254286
2.1, 0.04046472068275579
2.11, 0.03986510829898273
2.12, 0.03927465065577193
2.13, 0.03869320169759223
2.14, 0.038120617851825064
2.15, 0.03755675798273229
2.16, 0.03700148334637111
2.17, 0.03645465754644025
2.18, 0.03591614649103113
2.19, 0.03538581835026592
2.2, 0.03486354351480005
2.21, 0.0343491945551719
2.22, 0.033842646181977167
2.23, 0.033343775206851944
2.24, 0.032852460504244195
2.25, 0.03236858297395685
2.2600000000000002, 0.031892025504443366
2.27, 0.03142267293684219
2.2800000000000002, 0.030960412029729448
2.29, 0.030505131424576126
2.3000000000000003, 0.03005672161189369
2.31, 0.02961507489805271
2.32, 0.029180085372758187
2.33, 0.028751648877169647
2.34, 0.028329662972648877
2.35, 0.027914026910123704
2.36, 0.027504641600052882
2.37, 0.027101409582979227
2.38, 0.02670423500065855
2.39, 0.026313023567750744
2.4, 0.0259276825440626
2.41, 0.025548120707327888
2.42, 0.025174248326515897
2.43, 0.024805977135653842
2.44, 0.02444322030815517
2.45, 0.02408589243164086
2.46, 0.023733909483243283
2.47, 0.023387188805383884
2.48, 0.023045649082012423
2.49, 0.022709210315298965
2.5, 0.02237779380276975
2.5100000000000002, 0.022051322114876145
2.52, 0.02172971907298892
2.5300000000000002, 0.0214129097278071
2.54, 0.02110082033817436
2.5500000000000003, 0.020793378350294166
2.56, 0.020490512377334312
2.57, 0.020192152179413548
2.58, 0.01989822864396241
2.59, 0.019608673766450146
2.6, 0.01932342063147019
2.61, 0.01904240339417725
2.62, 0.018765557262067956
2.63, 0.018492818477098466
2.64, 0.018224124298132673
2.65, 0.017959412983713282
2.66, 0.017698623775149455
2.67, 0.017441696879915054
2.68, 0.01718857345535085
2.69, 0.016939195592664408
2.7, 0.016693506301221565
2.71, 0.016451449493124697
2.72, 0.01621296996807001
2.73, 0.015978013398480262
2.74, 0.015746526314906337
2.75, 0.01551845609169248
2.7600000000000002, 0.015293750932899853
2.77, 0.01507235985848385
2.7800000000000002, 0.014854232690719178
2.79, 0.014639320040869026
2.8000000000000003, 0.014427573296092075
2.81, 0.014218944606584103
2.82, 0.0140133868729485
2.83, 0.013810853733791746
2.84, 0.013611299553539445
2.85, 0.013414679410468066
2.86, 0.01322094908494945
2.87, 0.013030065047902262
2.88, 0.012841984449447714
2.89, 0.012656665107765004
2.9, 0.012474065498143082
2.91, 0.012294144742224086
2.92, 0.012116862597435699
2.93, 0.011942179446608626
2.94, 0.011770056287774878
2.95, 0.011600454724144567
2.96, 0.011433336954257012
2.97, 0.011268665762303056
2.98, 0.011106404508615511
2.99, 0.01094651712032429
3.0, 0.01078896808217318
3.0100000000000002, 0.01063372242749572
3.02, 0.010480745729346012
3.0300000000000002, 0.010330004091783047
3.04, 0.010181464141304405
3.0500000000000003, 0.01003509301842734
3.06, 0.009890858369413984
3.0700000000000003, 0.009748728338138462
3.08, 0.009608671558092925
3.09, 0.00947065714453001
3.1, 0.00933465468673928
3.11, 0.009200634240455089
3.12, 0.009068566320393566
3.13, 0.008938421892916269
3.14, 0.008810172368817959
3.15, 0.008683789596236781
3.16, 0.008559245853683922
3.17, 0.008436513843191289
3.18, 0.008315566683574315
3.19, 0.008196377903808436
3.2, 0.008078921436516595
3.21, 0.007963171611566698
3.22, 0.007849103149775407
3.23, 0.007736691156718509
3.24, 0.007625911116643801
3.25, 0.007516738886486079
3.2600000000000002, 0.007409150689982116
3.27, 0.007303123111883174
3.2800000000000002, 0.007198633092264072
3.29, 0.00709565792092706
3.3000000000000003, 0.0069941752318979375
3.31, 0.006894162998013936
3.3200000000000003, 0.00679559952560097
3.33, 0.006698463449238847
3.34, 0.006602733726613061
3.35, 0.006508389633451384
3.36, 0.006415410758543934
3.37, 0.006323776998845068
3.38, 0.006233468554655979
3.39, 0.006144465924886301
3.4, 0.006056749902393247
3.41, 0.005970301569397353
3.42, 0.0058851022929729884
3.43, 0.005801133720612707
3.44, 0.005718377775863944
3.45, 0.005636816654036944
3.46, 0.005556432817982473
3.47, 0.005477208993938251
3.48, 0.005399128167443043
3.49, 0.005322173579316838
3.5, 0.005246328721706457
3.5100000000000002, 0.005171577334195068
3.52, 0.005097903399974801
3.5300000000000002, 0.00502529114208102
3.54, 0.004953725019687762
3.5500000000000003, 0.004883189724462558
3.56, 0.004813670176980322
3.5700000000000003, 0.004745151523194808
3.58, 0.004677619130966863
3.59, 0.004611058586648544
3.6, 0.004545455691721961
3.61, 0.004480796459492105
3.62, 0.004417067111832654
3.63, 0.004354254075983903
3.64, 0.004292343981401778
3.65, 0.004231323656657367
3.66, 0.004171180126385857
3.67, 0.004111900608284131
3.68, 0.004053472510156191
3.69, 0.003995883427005646
3.7, 0.003939121138174484
3.71, 0.0038831736045271343
3.72, 0.0038280289656795127
3.73, 0.003773675537271788
3.74, 0.003720101808284458
3.75, 0.0036672964383969364
3.7600000000000002, 0.0036152482553879002
3.77, 0.0035639462525767435
3.7800000000000002, 0.0035133795863054786
3.79, 0.0034635375734602715
3.8000000000000003, 0.0034144096890322048
3.81, 0.0033659855637163095
3.8200000000000003, 0.0033182549815485114
3.83, 0.0032712078775797514
3.84, 0.0032248343355864816
3.85, 0.003179124585817443
3.86, 0.0031340690027753864
3.87, 0.00308965810303396
3.88, 0.003045882543088525
3.89, 0.003002733117240785
3.9, 0.0029602007555164104
3.91, 0.0029182765216152107
3.92, 0.0028769516108933875
3.93, 0.002836217348377239
3.94, 0.002796065186807774
3.95, 0.002756486704715934
3.96, 0.0027174736045277163
3.97, 0.0026790177106987075
3.98, 0.0026411109678777657
3.99, 0.0026037454390991427
4.0, 0.002566913304002715
4.01, 0.0025306068570817865
4.0200000000000005, 0.002494818505958094
4.03, 0.0024595407696835388
4.04, 0.002424766277068229
4.05, 0.002390487765034326
4.0600000000000005, 0.0023566980769954187
4.07, 0.0023233901612608856
4.08, 0.002290557069464935
4.09, 0.0022581919550198506
4.1, 0.0022262880715931232
4.11, 0.0021948387716080493
4.12, 0.0021638375047673556
4.13, 0.0021332778165996462
4.14, 0.002103153347028141
4.15, 0.002073457828961422
4.16, 0.0020441850869058567
4.17, 0.002015329035599269
4.18, 0.0019868836786656515
4.19, 0.001958843107290433
4.2, 0.0019312014989160433
4.21, 0.0019039531159575362
4.22, 0.0018770923045377682
4.23, 0.0018506134932420094
4.24, 0.001824511191891534
4.25, 0.0017987799903359375
4.26, 0.0017734145572639813
4.2700000000000005, 0.0017484096390324394
4.28, 0.0017237600585129982
4.29, 0.001699460713956495
4.3, 0.0016755065778747125
4.3100000000000005, 0.001651892695938964
4.32, 0.0016286141858956132
4.33, 0.0016056662364979791
4.34, 0.0015830441064545397
4.3500000000000005, 0.0015607431233930487
4.36, 0.0015387586828404646
4.37, 0.0015170862472182703
4.38, 0.0014957213448531146
4.39, 0.0014746595690023486
4.4, 0.0014538965768944366
4.41, 0.0014334280887838213
4.42, 0.001413249887020097
4.43, 0.0013933578151313335
4.44, 0.001373747776921139
4.45, 0.0013544157355794906
4.46, 0.0013353577128069124
4.47, 0.0013165697879519197
4.48, 0.001298048097161411
4.49, 0.0012797888325439871
4.5, 0.0012617882413457613
4.51, 0.0012440426251386506
4.5200000000000005, 0.001226548339020916
4.53, 0.0012093017908296453
4.54, 0.001192299440365175
4.55, 0.0011755377986270967
4.5600000000000005, 0.0011590134270618498
4.57, 0.001142722936821487
4.58, 0.0011266629880336554
4.59, 0.00111083028908256
4.6000000000000005, 0.001095221595900585
4.61, 0.0010798337112707
4.62, 0.0010646634841392103
4.63, 0.001049707808938817
4.64, 0.0010349636249218739
4.65, 0.0010204279155035306
4.66, 0.0010060977076148312
4.67, 0.0009919700710653363
4.68, 0.0009780421179154033
4.69, 0.0009643110018577439
4.7, 0.0009507739176083223
4.71, 0.0009374281003062385
4.72, 0.0009242708249226566
4.73, 0.0009112994056785008
4.74, 0.0008985111954708415
4.75, 0.0008859035853078296
4.76, 0.0008734740037520805
4.7700000000000005, 0.0008612199163722917
4.78, 0.0008491388252030626
4.79, 0.0008372282682127842
4.8, 0.0008254858187793261
4.8100000000000005, 0.0008139090851736504
4.82, 0.0008024957100510479
4.83, 0.0007912433699498945
4.84, 0.000780149774797922
4.8500000000000005, 0.0007692126674257599
4.86, 0.0007584298230877443
4.87, 0.0007477990489897777
4.88, 0.0007373181838242733
4.89, 0.0007269850973118738
4.9, 0.0007167976897500832
4.91, 0.0007067538915685199
4.92, 0.0006968516628907303
4.93, 0.0006870889931025802
4.94, 0.0006774639004269103
4.95, 0.0006679744315045974
4.96, 0.0006586186609817108
4.97, 0.0006493946911028678
4.98, 0.000640300651310515
4.99, 0.0006313346978501323
5.0, 0.0006224950133813536
5.01, 0.0006137798065947269
5.0200000000000005, 0.0006051873118341681
5.03, 0.0005967157887249855
5.04, 0.000588363521807385
5.05, 0.0005801288201753743
5.0600000000000005, 0.0005720100171209865
5.07, 0.0005640054697837498
5.08, 0.0005561135588053088
5.09, 0.0005483326879891409
5.1000000000000005, 0.0005406612839652653
5.11, 0.0005330977958599026
5.12, 0.0005256406949699593
5.13, 0.0005182884744423454
5.14, 0.0005110396489579554
5.15, 0.0005038927544203254
5.16, 0.0004968463476488429
5.17, 0.0004898990060764741
5.18, 0.0004830493274519134
5.19, 0.0004762959295461173
5.2, 0.00046963744986313157
5.21, 0.00046307254535516264
5.22, 0.00045659989214182376
5.23, 0.00045021818523350313
5.24, 0.0004439261382587678
5.25, 0.00043772248319577493
5.26, 0.00043160597010760986
5.2700000000000005, 0.00042557536688149895
5.28, 0.00041962945897182976
5.29, 0.00041376704914694384
5.3, 0.0004079869572396267
5.3100000000000005, 0.0004022880199012388
5.32, 0.00039666909035944653
5.33, 0.00039112903817949726
5.34, 0.0003856667490289655
5.3500000000000005, 0.00038028112444595257
5.36, 0.000374971081610658
5.37, 0.0003697355531202899
5.38, 0.00036457348676725664
5.39, 0.0003594838453205973
5.4, 0.0003544656063105929
5.41, 0.00034951776181652684
5.42, 0.0003446393182575294
5.43, 0.0003398292961864756
5.44, 0.000335086730086883
5.45, 0.0003304106681727658
5.46, 0.00032580017219140627
5.47, 0.00032125431722899506
5.48, 0.0003167721915190963
5.49, 0.0003123528962539054
5.5, 0.0003079955453982489
5.51, 0.0003036992655062832
5.5200000000000005, 0.0002994631955408689
5.53, 0.0002952864866955621
5.54, 0.00029116830221919017
5.55, 0.0002871078172429807
5.5600000000000005, 0.0002831042186102032
5.57, 0.00027915670470827646
5.58, 0.00027526448530331386
5.59, 0.0002714267813770742
5.6000000000000005, 0.0002676428249662816
5.61, 0.00026391185900425616
5.62, 0.0002602331371648658
5.63, 0.0002566059237087256
5.64, 0.0002530294933316274
5.65, 0.0002495031310151718
5.66, 0.00024602613187955675
5.67, 0.00024259780103850058
5.68, 0.00023921745345627056
5.69, 0.00023588441380677268
5.7, 0.00023259801633468766
5.71, 0.00022935760471861147
5.72, 0.00022616253193618078
5.73, 0.00022301216013114272
5.74, 0.000219905860482352
5.75, 0.00021684301307466175
5.76, 0.00021382300677167326
5.7700000000000005, 0.00021084523909033632
5.78, 0.00020790911607735017
5.79, 0.0002050140521873568
5.8, 0.0002021594701628874
5.8100000000000005, 0.00019934480091604963
5.82, 0.00019656948341191408
5.83, 0.00019383296455359198
5.84, 0.00019113469906896087
5.8500000000000005, 0.0001884741493990361
5.86, 0.0001858507855879425
5.87, 0.00018326408517447933
5.88, 0.0001807135330852414
5.89, 0.00017819862152928972
5.9, 0.00017571884989432872
5.91, 0.0001732737246443888
5.92, 0.00017086275921898144
5.93, 0.00016848547393369924
5.94, 0.000166141395882256
5.95, 0.0001638300588399318
5.96, 0.0001615510031684071
5.97, 0.0001593037757219726
5.98, 0.00015708792975508036
5.99, 0.0001549030248312293
6.0, 0.00015274862673316127
6.01, 0.00015062430737434432
6.0200000000000005, 0.00014852964471173506
6.03, 0.00014646422265978738
6.04, 0.00014442763100570364
6.05, 0.00014241946532589716
6.0600000000000005, 0.00014043932690366033
6.07, 0.00013848682264800953
6.08, 0.0001365615650137034
6.09, 0.00013466317192240042
6.1000000000000005, 0.00013279126668495068
6.11, 0.00013094547792481007
6.12, 0.00012912543950254193
6.13, 0.00012733079044140936
6.140000000000001, 0.0001255611748540346
6.15, 0.0001238162418701058
6.16, 0.00012209564556512123
6.17, 0.0001203990448901624
6.18, 0.00011872610360266224
6.19, 0.00011707649019817445
6.2, 0.00011544987784311448
6.21, 0.00011384594430846633
6.22, 0.00011226437190444288
6.23, 0.00011070484741607289
6.24, 0.00010916706203972008
6.25, 0.00010765071132050024
6.26, 0.00010615549509060655
6.2700000000000005, 0.00010468111740850667
6.28, 0.0001032272864990158
6.29, 0.00010179371469422345
6.3, 0.00010038011837526894
6.3100000000000005, 9.898621791494679e-05
6.32, 9.761173762113256e-05
6.33, 9.62564056810191e-05
6.34, 9.491995410615055e-05
6.3500000000000005, 9.360211867823642e-05
6.36, 9.230263889574777e-05
6.37, 9.102125792127075e-05
6.38, 8.975772252961374e-05
6.390000000000001, 8.851178305665625e-05
6.4, 8.728319334892655e-05
6.41, 8.607171071390195e-05
6.42, 8.487709587101533e-05
6.43, 8.369911290336323e-05
6.44, 8.253752921010182e-05
6.45, 8.139211545952276e-05
6.46, 8.026264554279841e-05
6.47, 7.914889652838637e-05
6.48, 7.805064861708475e-05
6.49, 7.696768509772749e-05
6.5, 7.589979230351301e-05
6.51, 7.484675956895292e-05
6.5200000000000005, 7.380837918743657e-05
6.53, 7.278444636939933e-05
6.54, 7.177475920108725e-05
6.55, 7.077911860390756e-05
6.5600000000000005, 6.979732829436069e-05
6.57, 6.882919474454205e-05
6.58, 6.787452714320429e-05
6.59, 6.693313735737738e-05
6.6000000000000005, 6.600483989453216e-05
6.61, 6.508945186528374e-05
6.62, 6.41867929466255e-05
6.63, 6.329668534568641e-05
6.640000000000001, 6.241895376400266e-05
6.65, 6.155342536230012e-05
6.66, 6.069992972577571e-05
6.67, 5.985829882987169e-05
6.68, 5.9028367006539584e-05
6.69, 5.820997091098011e-05
6.7, 5.740294948886016e-05
6.71, 5.6607143943991785e-05
6.72, 5.58223977064718e-05
6.73, 5.504855640127537e-05
6.74, 5.428546781729391e-05
6.75, 5.3532981876813953e-05
6.76, 5.2790950605429274e-05
6.7700000000000005, 5.205922810237975e-05
6.78, 5.133767051131198e-05
6.79, 5.0626135991455414e-05
6.8, 4.992448468920565e-05
6.8100000000000005, 4.923257871011456e-05
6.82, 4.8550282091273505e-05
6.83, 4.787746077409239e-05
6.84, 4.721398257746226e-05
6.8500000000000005, 4.655971717130016e-05
6.86, 4.59145360504677e-05
6.87, 4.527831250906229e-05
6.88, 4.4650921615068754e-05
6.890000000000001, 4.403224018537419e-05
6.9, 4.342214676113465e-05
6.91, 4.282052158349171e-05
6.92, 4.2227246569634e-05
6.93, 4.16422052891972e-05
6.94, 4.106528294099672e-05
