Radial distance r (a.u.), Calculated helium wavefunction
0.006666666666666667, 1.2756751068539196
0.013333333333333334, 1.2587984224149311
0.02, 1.2421585430358573
0.02666666666666667, 1.225752775904847
0.03333333333333333, 1.2095784086897952
0.04, 1.1936327132504942
0.04666666666666667, 1.1779129491241365
0.05333333333333334, 1.1624163667952072
0.060000000000000005, 1.1471402107602824
0.06666666666666667, 1.1320817223979769
0.07333333333333333, 1.117238142653642
0.08, 1.1026067145482215
0.08666666666666667, 1.0881846855200843
0.09333333333333334, 1.0739693096084404
0.1, 1.0599578494864483
0.10666666666666667, 1.0461475783517917
0.11333333333333334, 1.0325357816821972
0.12000000000000001, 1.0191197588630323
0.12666666666666668, 1.0058968246936872
0.13333333333333333, 0.9928643107792687
0.14, 0.9800195668138465
0.14666666666666667, 0.9673599617609984
0.15333333333333335, 0.9548828849374255
0.16, 0.9425857470048608
0.16666666666666669, 0.9304659808754647
0.17333333333333334, 0.9185210425355288
0.18000000000000002, 0.9067484117920588
0.18666666666666668, 0.8951455929467238
0.19333333333333336, 0.8837101154012913
0.2, 0.8724395341985269
0.2066666666666667, 0.86133143050239
0.21333333333333335, 0.850383412021053
0.22, 0.8395931133761955
0.22666666666666668, 0.8289581964218193
0.23333333333333334, 0.8184763505156346
0.24000000000000002, 0.8081452927459797
0.24666666666666667, 0.7979627681169903
0.25333333333333335, 0.7879265496947073
0.26, 0.7780344387165729
0.26666666666666666, 0.76828426466671
0.2733333333333334, 0.7586738853191939
0.28, 0.7492011867514841
0.2866666666666667, 0.7398640833299526
0.29333333333333333, 0.7306605176695143
0.30000000000000004, 0.7215884605690338
0.3066666666666667, 0.7126459109243777
0.31333333333333335, 0.70383089562051
0.32, 0.6951414694043931
0.32666666666666666, 0.6865757147399442
0.33333333333333337, 0.6781317416464722
0.34, 0.6698076875219661
0.3466666666666667, 0.6616017169522693
0.35333333333333333, 0.6535120215074716
0.36000000000000004, 0.6455368195264772
0.3666666666666667, 0.6376743558907846
0.37333333333333335, 0.6299229017885366
0.38, 0.6222807544695719
0.3866666666666667, 0.6147462369925064
0.39333333333333337, 0.6073176979645183
0.4, 0.5999935112746797
0.4066666666666667, 0.5927720758214678
0.4133333333333334, 0.585651815235199
0.42000000000000004, 0.5786311775959442
0.4266666666666667, 0.5717086351475678
0.43333333333333335, 0.5648826840083919
0.44, 0.5581518438790645
0.4466666666666667, 0.551514657748051
0.45333333333333337, 0.5449696915952418
0.46, 0.5385155340940945
0.4666666666666667, 0.5321507963127199
0.4733333333333334, 0.5258741114142338
0.48000000000000004, 0.5196841343567814
0.4866666666666667, 0.5135795415935199
0.49333333333333335, 0.5075590307728568
0.5, 0.5016213204392647
0.5066666666666667, 0.4957651497348644
0.5133333333333334, 0.48998927810209214
0.52, 0.48429248498759603
0.5266666666666667, 0.4786735695476429
0.5333333333333333, 0.4731313503551777
0.54, 0.4676646651087025
0.5466666666666667, 0.4622723703432032
0.5533333333333333, 0.4569533411431926
0.56, 0.4517064708580452
0.5666666666666667, 0.4465306708197506
0.5733333333333334, 0.4414248700631907
0.5800000000000001, 0.4363880150490393
0.5866666666666667, 0.43141906938937535
0.5933333333333334, 0.4265170135761141
0.6000000000000001, 0.4216808447123032
0.6066666666666667, 0.4169095762463706
0.6133333333333334, 0.41220223770936554
0.62, 0.40755787445526437
0.6266666666666667, 0.40297554740438074
0.6333333333333334, 0.39845433278990444
0.64, 0.3939933219076184
0.6466666666666667, 0.38959162086881216
0.6533333333333333, 0.3852483503564194
0.66, 0.38096264538440633
0.6666666666666667, 0.3767336550603897
0.6733333333333333, 0.3725605423515292
0.68, 0.36844248385369466
0.6866666666666668, 0.36437866956387566
0.6933333333333334, 0.360368302655883
0.7000000000000001, 0.35641059925928975
0.7066666666666667, 0.3525047882416295
0.7133333333333334, 0.34865011099383025
0.7200000000000001, 0.3448458212188827
0.7266666666666667, 0.34108837041409035
0.7333333333333334, 0.33737711162933376
0.7400000000000001, 0.3337114073623855
0.7466666666666667, 0.33009062944136075
0.7533333333333334, 0.32651415890667596
0.76, 0.3229813858926868
0.7666666666666667, 0.3194917095091959
0.7733333333333334, 0.31604453772290775
0.78, 0.3126392872390281
0.7866666666666667, 0.30927538338307653
0.7933333333333333, 0.3059522599830433
0.8, 0.30266935925199817
0.8066666666666668, 0.29942613167121557
0.8133333333333334, 0.2962220358739226
0.8200000000000001, 0.2930565385297439
0.8266666666666668, 0.2899291142298938
0.8333333333333334, 0.28683924537320066
0.8400000000000001, 0.28378642205301485
0.8466666666666667, 0.28077014194502964
0.8533333333333334, 0.27778991019610366
0.8600000000000001, 0.2748452393140848
0.8666666666666667, 0.2719356490586955
0.8733333333333334, 0.26906066633351505
0.88, 0.2662198250790617
0.8866666666666667, 0.26341266616704545
0.8933333333333334, 0.260638737295768
0.9, 0.25789759288671565
0.9066666666666667, 0.2551887939823586
0.9133333333333334, 0.25251190814516766
0.92, 0.24986650935786295
0.9266666666666667, 0.24725217792489512
0.9333333333333333, 0.24466850037518031
0.9400000000000001, 0.24211506936609062
0.9466666666666668, 0.23959148358869292
0.9533333333333334, 0.23709734767425758
0.9600000000000001, 0.2346322721020176
0.9666666666666667, 0.23219587310819156
0.9733333333333334, 0.22978777259627214
0.9800000000000001, 0.22740759804855343
0.9866666666666667, 0.22505498243892158
0.9933333333333334, 0.2227295641468854
1.0, 0.2204309868728545
1.0066666666666668, 0.21815889955463377
1.0133333333333334, 0.21591295628515825
1.02, 0.21369281623143904
1.0266666666666668, 0.21149814355471963
1.0333333333333334, 0.20932860733182124
1.04, 0.20718388147768593
1.0466666666666666, 0.20506364466909954
1.0533333333333335, 0.20296758026956613
1.06, 0.20089537625535284
1.0666666666666667, 0.19884672514267066
1.0733333333333335, 0.19682132391598692
1.08, 0.19481887395745917
1.0866666666666667, 0.1928390809774724
1.0933333333333335, 0.19088165494627224
1.1, 0.1889463100266764
1.1066666666666667, 0.18703276450785913
1.1133333333333335, 0.18514074074018166
1.12, 0.18326996507107007
1.1266666666666667, 0.18142016778191744
1.1333333333333333, 0.17959108302600574
1.1400000000000001, 0.17778244876741744
1.1466666666666667, 0.17599400672094542
1.1533333333333333, 0.17422550229296987
1.1600000000000001, 0.1724766845232972
1.1666666666666667, 0.17074730602794513
1.1733333333333333, 0.16903712294286066
1.1800000000000002, 0.1673458948685583
1.1866666666666668, 0.16567338481565802
1.1933333333333334, 0.16401935915133034
1.2000000000000002, 0.16238358754660337
1.2066666666666668, 0.16076584292454948
1.2133333333333334, 0.15916590140931672
1.22, 0.15758354227600624
1.2266666666666668, 0.15601854790137126
1.2333333333333334, 0.1544707037153347
1.24, 0.15293979815330697
1.2466666666666668, 0.15142562260929254
1.2533333333333334, 0.14992797138977315
1.26, 0.1484466416683547
1.2666666666666668, 0.1469814334411698
1.2733333333333334, 0.14553214948301516
1.28, 0.1440985953042209
1.2866666666666668, 0.1426805791082331
1.2933333333333334, 0.14127791174990562
1.3, 0.1398904066944788
1.3066666666666666, 0.1385178799772466
1.3133333333333335, 0.1371601501638873
1.32, 0.13581703831146213
1.3266666666666667, 0.13448836793005162
1.3333333333333335, 0.13317396494504302
1.34, 0.13187365766003004
1.3466666666666667, 0.1305872767203424
1.3533333333333335, 0.12931465507717368
1.36, 0.1280556279523088
1.3666666666666667, 0.1268100328034329
1.3733333333333335, 0.1255777092900243
1.3800000000000001, 0.12435849923980778
1.3866666666666667, 0.12315224661576407
1.3933333333333333, 0.12195879748369105
1.4000000000000001, 0.12077799998030034
1.4066666666666667, 0.11960970428184078
1.4133333333333333, 0.11845376257324713
1.4200000000000002, 0.11731002901779324
1.4266666666666667, 0.11617835972725278
1.4333333333333333, 0.11505861273254893
1.4400000000000002, 0.11395064795489294
1.4466666666666668, 0.11285432717739609
1.4533333333333334, 0.1117695140171529
1.4600000000000002, 0.11069607389778208
1.4666666666666668, 0.10963387402242246
1.4733333333333334, 0.1085827833471715
1.4800000000000002, 0.10754267255496137
1.4866666666666668, 0.10651341402986458
1.4933333333333334, 0.10549488183182334
1.5, 0.10448695167178798
1.5066666666666668, 0.10348950088726948
1.5133333333333334, 0.1025024084182888
1.52, 0.10152555478371995
1.5266666666666668, 0.10055882205801986
1.5333333333333334, 0.09960209384833825
1.54, 0.09865525527200203
1.5466666666666669, 0.09771819293436376
1.5533333333333335, 0.09679079490701212
1.56, 0.09587295070633882
1.5666666666666669, 0.09496455127244907
1.5733333333333335, 0.09406548894841822
1.58, 0.09317565745987993
1.5866666666666667, 0.0922949518949504
1.5933333333333335, 0.091423268684473
1.6, 0.09056050558258061
1.6066666666666667, 0.08970656164757693
1.6133333333333335, 0.08886133722311992
1.62, 0.08802473391971041
1.6266666666666667, 0.08719665459647898
1.6333333333333335, 0.08637700334326277
1.6400000000000001, 0.08556568546297018
1.6466666666666667, 0.08476260745422871
1.6533333333333335, 0.08396767699430886
1.6600000000000001, 0.08318080292232173
1.6666666666666667, 0.08240189522268296
1.6733333333333333, 0.08163086500883993
1.6800000000000002, 0.08086762450725934
1.6866666666666668, 0.08011208704166632
1.6933333333333334, 0.07936416701753612
1.7000000000000002, 0.07862377990682787
1.7066666666666668, 0.07789084223296304
1.7133333333333334, 0.07716527155603835
1.7200000000000002, 0.0764469864582735
1.7266666666666668, 0.07573590652968587
1.7333333333333334, 0.07503195235399183
1.7400000000000002, 0.07433504549472844
1.7466666666666668, 0.07364510848159529
1.7533333333333334, 0.07296206479700382
1.76, 0.07228583886284315
1.7666666666666668, 0.07161635602744824
1.7733333333333334, 0.07095354255277428
1.78, 0.07029732560176533
1.7866666666666668, 0.06964763322592568
1.7933333333333334, 0.06900439435307765
1.8, 0.06836753877531372
1.8066666666666669, 0.06773699713713097
1.8133333333333335, 0.06711270092375257
1.82, 0.06649458244962389
1.8266666666666669, 0.0658825748470913
1.8333333333333335, 0.06527661205524998
1.84, 0.06467662880896674
1.8466666666666667, 0.06408256062806737
1.8533333333333335, 0.06349434380669121
1.86, 0.06291191540280804
1.8666666666666667, 0.06233521322789398
1.8733333333333335, 0.061764175836764815
1.8800000000000001, 0.061198742517563715
1.8866666666666667, 0.06063885328190094
1.8933333333333335, 0.06008444885514146
1.9000000000000001, 0.05953547066684104
1.9066666666666667, 0.058991860841326335
1.9133333333333336, 0.058453562188415895
1.9200000000000002, 0.05792051819428105
1.9266666666666667, 0.05739267301244468
1.9333333333333333, 0.05686997145491468
1.9400000000000002, 0.05635235898344836
1.9466666666666668, 0.055839781700951045
1.9533333333333334, 0.055332186342998003
1.9600000000000002, 0.05482952026948766
1.9666666666666668, 0.05433173145641496
1.9733333333333334, 0.053838768487769084
1.9800000000000002, 0.05335058054755008
1.9866666666666668, 0.05286711741190413
1.9933333333333334, 0.05238832944137456
2.0, 0.05191416757326723
2.006666666666667, 0.051444583314128364
2.0133333333333336, 0.05097952873233322
2.02, 0.05051895645078172
2.026666666666667, 0.05006281963970404
2.0333333333333337, 0.04961107200956789
2.04, 0.04916366780409297
2.046666666666667, 0.048720561793363315
2.0533333333333337, 0.04828170926704317
2.06, 0.0478470660276893
2.066666666666667, 0.0474165883841611
2.0733333333333333, 0.0469902331451255
2.08, 0.046567957612656107
2.086666666666667, 0.04614971957592513
2.0933333333333333, 0.0457354773049848
2.1, 0.04532518954463914
2.106666666666667, 0.04491881550840399
2.1133333333333333, 0.044516314872551505
2.12, 0.04411764777024256
2.126666666666667, 0.04372277478574134
2.1333333333333333, 0.04333165694871312
2.14, 0.04294425572860103
2.146666666666667, 0.042560533029086266
2.1533333333333333, 0.04218045118262356
2.16, 0.041803972945056174
2.166666666666667, 0.0414310614903063
2.1733333333333333, 0.04106168040513883
2.18, 0.040695793684002605
2.186666666666667, 0.0403333657239392
2.1933333333333334, 0.039974361319567706
2.2, 0.03961874565813782
2.206666666666667, 0.039266484314649984
2.2133333333333334, 0.03891754324704928
2.22, 0.038571888791480304
2.226666666666667, 0.03822948765761162
2.2333333333333334, 0.03789030692402379
2.24, 0.03755431403366257
2.2466666666666666, 0.03722147678935367
2.2533333333333334, 0.0368917633493806
2.2600000000000002, 0.03656514222312233
2.2666666666666666, 0.03624158226675315
2.2733333333333334, 0.03592105267899834
2.2800000000000002, 0.0356035229969521
2.2866666666666666, 0.03528896309194946
2.2933333333333334, 0.03497734316549668
2.3000000000000003, 0.03466863374525686
2.3066666666666666, 0.034362805681088716
2.3133333333333335, 0.03405983014114269
2.3200000000000003, 0.03375967860800578
2.3266666666666667, 0.03346232287490276
2.3333333333333335, 0.033167735041946096
2.3400000000000003, 0.03287588751243771
2.3466666666666667, 0.03258675298922154
2.3533333333333335, 0.03230030447108267
2.3600000000000003, 0.032016515249197554
2.3666666666666667, 0.031735358903630155
2.3733333333333335, 0.03145680929987713
2.3800000000000003, 0.031180840585456886
2.3866666666666667, 0.030907427186545322
2.3933333333333335, 0.03063654380465738
2.4000000000000004, 0.030368165413371367
2.4066666666666667, 0.030102267255097397
2.4133333333333336, 0.02983882483788892
2.4200000000000004, 0.029577813932296623
2.4266666666666667, 0.02931921056826372
2.4333333333333336, 0.029062991032062082
2.44, 0.028809131863269923
2.4466666666666668, 0.02855760985178672
2.4533333333333336, 0.02830840203489167
2.46, 0.028061485694335635
2.466666666666667, 0.02781683835347623
2.4733333333333336, 0.027574437774446008
2.48, 0.027334261955361087
2.486666666666667, 0.027096289127564892
2.4933333333333336, 0.02686049775290587
2.5, 0.026626866521054917
2.506666666666667, 0.026395374346853566
2.5133333333333336, 0.0261660003676989
2.52, 0.025938723940961642
2.526666666666667, 0.025713524641437203
2.5333333333333337, 0.025490382258830328
2.54, 0.02526927679527206
2.546666666666667, 0.0250501884628677
2.5533333333333337, 0.024833097681278192
2.56, 0.024617985075330074
2.566666666666667, 0.024404831472658466
2.5733333333333337, 0.02419361790137831
2.58, 0.023984325587786293
2.586666666666667, 0.023776935954091825
2.5933333333333337, 0.023571430616177332
2.6, 0.023367791381385932
2.606666666666667, 0.023166000246338032
2.6133333333333333, 0.022966039394775994
2.62, 0.022767891195434656
2.626666666666667, 0.02257153819994023
2.6333333333333333, 0.02237696314073446
2.64, 0.022184148929026176
2.646666666666667, 0.021993078652767152
2.6533333333333333, 0.021803735574654662
2.66, 0.0216161031301588
2.666666666666667, 0.02143016492557321
2.6733333333333333, 0.021245904736092846
2.68, 0.021063306503912305
2.686666666666667, 0.020882354336351064
2.6933333333333334, 0.02070303250399992
2.7, 0.020525325438891184
2.706666666666667, 0.020349217732692017
2.7133333333333334, 0.020174694134919378
2.72, 0.020001739551177036
2.726666666666667, 0.01983033904141527
2.7333333333333334, 0.01966047781821144
2.74, 0.019492141245071076
2.746666666666667, 0.019325314834751337
2.7533333333333334, 0.019159984247603786
2.7600000000000002, 0.018996135289937956
2.766666666666667, 0.01883375391240533
2.7733333333333334, 0.018672826208402195
2.7800000000000002, 0.018513338412492926
2.7866666666666666, 0.018355276898851552
2.7933333333333334, 0.018198628179723637
2.8000000000000003, 0.018043378903905255
2.8066666666666666, 0.017889515855241723
2.8133333333333335, 0.017737025951143653
2.8200000000000003, 0.017585896241121855
2.8266666666666667, 0.017436113905338797
2.8333333333333335, 0.01728766625317881
2.8400000000000003, 0.017140540721834616
2.8466666666666667, 0.016994724874911365
2.8533333333333335, 0.01685020640104691
2.8600000000000003, 0.016706973112549595
2.8666666666666667, 0.01656501294405142
2.8733333333333335, 0.016424313951177667
2.8800000000000003, 0.016284864309232844
2.8866666666666667, 0.0161466523119015
2.8933333333333335, 0.01600966636996534
2.9000000000000004, 0.01587389501003515
2.9066666666666667, 0.015739326873298175
2.9133333333333336, 0.015605950714279533
2.9200000000000004, 0.015473755399619586
2.9266666666666667, 0.015342729906864718
2.9333333333333336, 0.015212863323272962
2.9400000000000004, 0.015084144844633595
2.9466666666666668, 0.014956563774100862
2.9533333333333336, 0.014830109521040719
2.9600000000000004, 0.014704771599892407
2.966666666666667, 0.014580539629042091
2.9733333333333336, 0.014457403329710633
2.98, 0.014335352524853946
2.986666666666667, 0.014214377138076556
2.9933333333333336, 0.01409446719255728
3.0, 0.013975612809988385
3.006666666666667, 0.01385780420952613
3.0133333333333336, 0.013741031706754102
3.02, 0.013625285712658678
3.026666666666667, 0.013510556732615989
3.0333333333333337, 0.013396835365391
3.04, 0.013284112302147766
3.046666666666667, 0.013172378325471903
3.0533333333333337, 0.013061624308403588
3.06, 0.012951841213481917
3.066666666666667, 0.012843020091800585
3.0733333333333337, 0.01273515208207424
3.08, 0.01262822840971545
3.086666666666667, 0.012522240385922562
3.0933333333333337, 0.012417179406777732
3.1, 0.012313036952355553
3.106666666666667, 0.012209804585841758
3.1133333333333337, 0.012107473952661861
3.12, 0.012006036779620139
3.126666666666667, 0.011905484874048036
3.1333333333333337, 0.011805810122962624
3.14, 0.01170700449223401
3.146666666666667, 0.01160906002576339
3.1533333333333333, 0.01151196884466877
3.16, 0.011415723146481696
3.166666666666667, 0.011320315204351655
3.1733333333333333, 0.011225737366260405
3.18, 0.01113198205424456
3.186666666666667, 0.011039041763627463
3.1933333333333334, 0.01094690906225926
3.2, 0.010855576589765974
3.206666666666667, 0.010765037056806492
3.2133333333333334, 0.010675283244338533
3.22, 0.01058630800289238
3.226666666666667, 0.010498104251852823
3.2333333333333334, 0.010410664978749465
3.24, 0.010323983238554407
3.246666666666667, 0.010238052152988408
3.2533333333333334, 0.010152864909834155
3.2600000000000002, 0.010068414762257874
3.266666666666667, 0.009984695028137818
3.2733333333333334, 0.009901699089400742
3.2800000000000002, 0.009819420391365389
3.286666666666667, 0.009737852442093601
3.2933333333333334, 0.009656988811748193
3.3000000000000003, 0.009576823131958387
3.306666666666667, 0.009497349095192153
3.3133333333333335, 0.009418560454135045
3.3200000000000003, 0.00934045102107662
3.3266666666666667, 0.009263014667302978
3.3333333333333335, 0.009186245322496468
3.3400000000000003, 0.009110136974141708
3.3466666666666667, 0.009034683666938124
3.3533333333333335, 0.008959879502219355
3.3600000000000003, 0.008885718637378257
3.3666666666666667, 0.008812195285299028
3.3733333333333335, 0.008739303713795074
3.3800000000000003, 0.008667038245053086
3.3866666666666667, 0.00859539325508329
3.3933333333333335, 0.008524363173175516
3.4000000000000004, 0.008453942481361611
3.4066666666666667, 0.008384125713883044
3.4133333333333336, 0.008314907456664775
3.4200000000000004, 0.008246282346795065
3.4266666666666667, 0.008178245072010199
3.4333333333333336, 0.00811079037018534
3.4400000000000004, 0.008043913028830915
3.4466666666666668, 0.00797760788459403
3.4533333333333336, 0.007911869822765837
3.4600000000000004, 0.007846693776793664
3.466666666666667, 0.007782074727798984
3.4733333333333336, 0.007718007704099888
3.4800000000000004, 0.007654487780739503
3.486666666666667, 0.007591510079018786
3.4933333333333336, 0.00752906976603474
3.5000000000000004, 0.007467162054223471
3.506666666666667, 0.00740578220090806
3.5133333333333336, 0.007344925507851566
3.52, 0.007284587320814494
3.526666666666667, 0.00722476302911701
3.5333333333333337, 0.007165448065206207
3.54, 0.007106637904227497
3.546666666666667, 0.007048328063601043
3.5533333333333337, 0.006990514102602307
3.56, 0.006933191621947258
3.566666666666667, 0.006876356263381979
