Radial distance r (a.u.), Calculated helium wavefunction
0.005, 1.2799613740603193
0.01, 1.2672363341761688
0.015, 1.2546452514777153
0.02, 1.242186995972344
0.025, 1.2298604305586118
0.03, 1.2176644119565618
0.035, 1.205597791595552
0.04, 1.1936594164613272
0.045, 1.1818481299037091
0.05, 1.1701627724063515
0.055, 1.1586021823200614
0.06, 1.1471651965609575
0.065, 1.1358506512747857
0.07, 1.124657382468752
0.075, 1.1135842266119889
0.08, 1.102630021205979
0.085, 1.0917936053259407
0.09, 1.0810738201344854
0.095, 1.0704695093684293
0.1, 1.059979519799963
0.105, 1.04960270167308
0.11, 1.0393379091163466
0.115, 1.029184000532824
0.12, 1.0191398389682065
0.125, 1.0092042924579026
0.13, 0.999376234354041
0.135, 0.9896545436331486
0.14, 0.9800381051852805
0.145, 0.9705258100854166
0.15, 0.9611165558478607
0.155, 0.9518092466642518
0.16, 0.9426027936260503
0.165, 0.9334961149319377
0.17, 0.9244881360810236
0.17500000000000002, 0.915577790052204
0.18, 0.9067640174704696
0.185, 0.8980457667606566
0.19, 0.8894219942891229
0.195, 0.8808916644940218
0.2, 0.8724537500045508
0.20500000000000002, 0.8641072317497106
0.21, 0.8558510990570803
0.215, 0.8476843497420106
0.22, 0.8396059901876809
0.225, 0.8316150354164803
0.23, 0.8237105091530225
0.23500000000000001, 0.8158914438793249
0.24, 0.8081568808823637
0.245, 0.8005058702944913
0.25, 0.7929374711269753
0.255, 0.7854507512970664
0.26, 0.7780447876488338
0.265, 0.7707186659681194
0.27, 0.76347148099191
0.275, 0.7563023364123738
0.28, 0.7492103448758588
0.28500000000000003, 0.7421946279771114
0.29, 0.7352543162489585
0.295, 0.7283885491476649
0.3, 0.7215964750342486
0.305, 0.71487725115195
0.31, 0.7082300436000265
0.315, 0.7016540273041592
0.32, 0.6951483859835623
0.325, 0.6887123121150912
0.33, 0.6823450068944092
0.335, 0.6760456801945014
0.34, 0.669813550521603
0.34500000000000003, 0.6636478449687572
0.35000000000000003, 0.657547799167138
0.355, 0.6515126572352345
0.36, 0.6455416717261224
0.365, 0.6396341035728935
0.37, 0.6337892220323661
0.375, 0.6280063046272125
0.38, 0.6222846370866484
0.385, 0.6166235132857163
0.39, 0.6110222351833432
0.395, 0.6054801127592458
0.4, 0.5999964639497539
0.405, 0.5945706145826815
0.41000000000000003, 0.5892018983113138
0.41500000000000004, 0.5838896565475935
0.42, 0.5786332383945846
0.425, 0.5734320005782985
0.43, 0.568285307378945
0.435, 0.5631925305616767
0.44, 0.5581530493068959
0.445, 0.5531662501401908
0.45, 0.5482315268619475
0.455, 0.543348280476704
0.46, 0.538515919122296
0.465, 0.5337338579988371
0.47000000000000003, 0.5290015192976125
0.47500000000000003, 0.5243183321298838
0.48, 0.519683732455691
0.485, 0.5150971630126705
0.49, 0.5105580732449282
0.495, 0.5060659192320268
0.5, 0.5016201636180787
0.505, 0.4972202755410315
0.51, 0.49286573056212557
0.515, 0.48855601059561005
0.52, 0.4842906038386652
0.525, 0.4800690047016538
0.53, 0.47589071373864555
0.535, 0.47175523757827686
0.54, 0.4676620888549634
0.545, 0.46361078614048773
0.55, 0.4596008538759632
0.555, 0.45563182230421057
0.56, 0.45170322740256225
0.5650000000000001, 0.4478146108160948
0.5700000000000001, 0.4439655197913334
0.5750000000000001, 0.440155507110417
0.58, 0.43638413102572166
0.585, 0.43265095519501234
0.59, 0.42895554861707175
0.595, 0.42529748556784386
0.6, 0.42167634553711075
0.605, 0.41809171316569116
0.61, 0.41454317818317216
0.615, 0.41103033534618794
0.62, 0.40755278437725645
0.625, 0.40411012990415385
0.63, 0.40070198139987656
0.635, 0.39732795312313396
0.64, 0.3939876640594317
0.645, 0.3906807378627342
0.65, 0.387406802797673
0.655, 0.3841654916823625
0.66, 0.380956441831763
0.665, 0.3777792950016553
0.67, 0.3746336973331719
0.675, 0.37151929929792404
0.68, 0.36843575564370323
0.685, 0.36538272534075955
0.6900000000000001, 0.3623598715286751
0.6950000000000001, 0.3593668614638055
0.7000000000000001, 0.3564033664673027
0.705, 0.35346906187371707
0.71, 0.3505636269801796
0.715, 0.34768674499614827
0.72, 0.3448381029937325
0.725, 0.3420158051981566
0.73, 0.3392195782255162
0.735, 0.33644915168953177
0.74, 0.33370425817372745
0.745, 0.3309846332035001
0.75, 0.32829001521813156
0.755, 0.3256201455427215
0.76, 0.32297476836009714
0.765, 0.3203536306827097
0.77, 0.31775648232452297
0.775, 0.31518307587293054
0.78, 0.3126331666607077
0.785, 0.3101065127380071
0.79, 0.3076028748444287
0.795, 0.3051220163811607
0.8, 0.3026637033832147
0.805, 0.3002277044917598
0.81, 0.29781379092657384
0.8150000000000001, 0.29542173645861347
0.8200000000000001, 0.2930513173827142
0.8250000000000001, 0.2907023124904388
0.8300000000000001, 0.2883745030430643
0.835, 0.2860676727447374
0.84, 0.28378160771578226
0.845, 0.28151609646618
0.85, 0.27927092986923174
0.855, 0.2770459011353909
0.86, 0.27484080578629116
0.865, 0.2726554416289604
0.87, 0.2704896087302307
0.875, 0.2683431093913476
0.88, 0.2662157481227814
0.885, 0.2641073316192424
0.89, 0.2620176687349095
0.895, 0.25994657045886316
0.9, 0.25789384989073855
0.905, 0.255859322216588
0.91, 0.25384280468496395
0.915, 0.2518441165832215
0.92, 0.24986307921403572
0.925, 0.24789951587214692
0.93, 0.24595325182132513
0.935, 0.24402411427155804
0.9400000000000001, 0.24211193235645845
0.9450000000000001, 0.24021653711089908
0.9500000000000001, 0.23833776144887447
0.9550000000000001, 0.2364754401415777
0.96, 0.23462940979571445
0.965, 0.23279950883202816
0.97, 0.23098557746405235
0.975, 0.22918745767709642
0.98, 0.227404993207436
0.985, 0.2256380295217414
0.99, 0.22388641379671456
0.995, 0.22214999489895984
1.0, 0.22042862336506266
1.0050000000000001, 0.21872215138189052
1.01, 0.21703043276711903
1.0150000000000001, 0.21535332294995557
1.02, 0.21369067895210156
1.025, 0.2120423593689131
1.03, 0.2104082243507781
1.035, 0.20878813558470338
1.04, 0.20718195627611885
1.045, 0.20558955113087857
1.05, 0.20401078633748101
1.055, 0.20244552954948128
1.06, 0.20089364986812328
1.065, 0.19935501782516066
1.07, 0.19782950536588198
1.075, 0.19631698583234322
1.08, 0.19481733394678238
1.085, 0.19333042579524318
1.09, 0.1918561388113858
1.095, 0.19039435176049635
1.1, 0.18894494472367437
1.105, 0.18750779908222387
1.11, 0.186082797502221
1.115, 0.18466982391927161
1.12, 0.18326876352345028
1.125, 0.18187950274442294
1.1300000000000001, 0.18050192923674677
1.135, 0.17913593186534887
1.1400000000000001, 0.17778140069118376
1.145, 0.1764382269570619
1.1500000000000001, 0.1751063030736508
1.155, 0.17378552260565153
1.16, 0.17247578025813617
1.165, 0.17117697186305944
1.17, 0.1698889943659377
1.175, 0.16861174581267838
1.18, 0.16734512533658435
1.185, 0.16608903314551807
1.19, 0.16484337050921266
1.195, 0.1636080397467498
1.2, 0.16238294421419022
1.205, 0.1611679882923523
1.21, 0.159963077374752
1.215, 0.15876811785567702
1.22, 0.1575830171184264
1.225, 0.1564076835236794
1.23, 0.155242026398023
1.235, 0.1540859560226093
1.24, 0.1529393836219652
1.245, 0.15180222135293558
1.25, 0.15067438229376173
1.2550000000000001, 0.1495557804333014
1.26, 0.14844633066038
1.2650000000000001, 0.14734594875327553
1.27, 0.14625455136933188
1.2750000000000001, 0.1451720560347088
1.28, 0.14409838113424908
1.285, 0.14303344590148467
1.29, 0.14197717040875618
1.295, 0.14092947555746177
1.3, 0.13989028306842782
1.305, 0.13885951547239914
1.31, 0.13783709610064604
1.315, 0.13682294907569084
1.32, 0.13581699930215116
1.325, 0.13481917245769534
1.33, 0.13382939498410923
1.335, 0.13284759407848393
1.34, 0.13187369768449833
1.345, 0.13090763448382767
1.35, 0.12994933388764163
1.355, 0.12899872602822618
1.36, 0.12805574175069687
1.365, 0.1271203126048209
1.37, 0.12619237083694318
1.375, 0.1252718493820067
1.3800000000000001, 0.12435868185567878
1.385, 0.12345280254657395
1.3900000000000001, 0.12255414640857162
1.395, 0.12166264905322965
1.4000000000000001, 0.12077824674229597
1.405, 0.11990087638031056
1.41, 0.11903047550729814
1.415, 0.11816698229155514
1.42, 0.11731033552252684
1.425, 0.11646047460376617
1.43, 0.11561733954599007
1.435, 0.11478087096021394
1.44, 0.11395101005097502
1.445, 0.11312769860963957
1.45, 0.11231087900779223
1.455, 0.11150049419070741
1.46, 0.11069648767090294
1.465, 0.10989880352177119
1.47, 0.10910738637129154
1.475, 0.10832218139581784
1.48, 0.10754313431394358
1.485, 0.10677019138044475
1.49, 0.10600329938029568
1.495, 0.10524240562275898
1.5, 0.10448745793554691
1.5050000000000001, 0.10373840465905643
1.51, 0.10299519464067482
1.5150000000000001, 0.10225777722915634
1.52, 0.10152610226906504
1.5250000000000001, 0.10080012009528863
1.53, 0.10007978152761715
1.5350000000000001, 0.09936503786539096
1.54, 0.09865584088221267
1.545, 0.09795214282072195
1.55, 0.09725389638743885
1.555, 0.0965610547476675
1.56, 0.09587357152045896
1.565, 0.09519140077363993
1.57, 0.09451449701890162
1.575, 0.09384281520694703
1.58, 0.0931763107226966
1.585, 0.0925149393805536
1.59, 0.09185865741972757
1.595, 0.09120742149961074
1.6, 0.09056118869521729
1.605, 0.08991991649266919
1.61, 0.08928356278474546
1.615, 0.08865208586647745
1.62, 0.0880254444308029
1.625, 0.08740359756427021
1.6300000000000001, 0.08678650474279323
1.635, 0.08617412582745897
1.6400000000000001, 0.0855664210603868
1.645, 0.08496335106063592
1.6500000000000001, 0.08436487682015693
1.655, 0.08377095969980453
1.6600000000000001, 0.08318156142538465
1.665, 0.08259664408375757
1.67, 0.08201617011898335
1.675, 0.08144010232851386
1.68, 0.0808684038594336
1.685, 0.08030103820474065
1.69, 0.07973796919967435
1.695, 0.07917916101808599
1.7, 0.07862457816885385
1.705, 0.07807418549233873
1.71, 0.07752794815688323
1.715, 0.07698583165535072
1.72, 0.07644780180170761
1.725, 0.07591382472764557
1.73, 0.07538386687923916
1.735, 0.07485789501365041
1.74, 0.07433587619586486
1.745, 0.07381777779547237
1.75, 0.07330356748348227
1.7550000000000001, 0.07279321322917323
1.76, 0.07228668329698815
1.7650000000000001, 0.07178394624345583
1.77, 0.07128497091415713
1.7750000000000001, 0.0707897264407194
1.78, 0.07029818223785228
1.7850000000000001, 0.06981030800041253
1.79, 0.06932607370050797
1.795, 0.06884544958463014
1.8, 0.06836840617082524
1.805, 0.06789491424589432
1.81, 0.06742494486262603
1.815, 0.06695846933706563
1.82, 0.06649545924580891
1.825, 0.0660358864233327
1.83, 0.06557972295935409
1.835, 0.06512694119622023
1.84, 0.0646775137263281
1.845, 0.06423141338957374
1.85, 0.06378861327083137
1.855, 0.06334908669746257
1.86, 0.06291280723684906
1.865, 0.06247974869396087
1.87, 0.06204988510894635
1.875, 0.061623190754752956
1.8800000000000001, 0.06119964013477295
1.885, 0.06077920798051858
1.8900000000000001, 0.06036186924932127
1.895, 0.05994759912205743
1.9000000000000001, 0.059536373000901546
1.905, 0.059128166507103
1.9100000000000001, 0.05872295547878829
1.915, 0.058320715968789225
1.92, 0.05792142424249463
1.925, 0.05752505677572581
1.93, 0.0571315902526381
1.935, 0.056741001563642646
1.94, 0.05635326780335477
1.945, 0.05596836626856356
1.95, 0.05558627445622442
1.955, 0.0552069700614749
1.96, 0.05483043097567083
1.965, 0.054456635284446386
1.97, 0.054085561265795286
1.975, 0.05371718738817311
1.98, 0.0533514923086194
1.985, 0.0529884548709034
1.99, 0.05262805410368733
1.995, 0.05227026921871255
2.0, 0.05191507960900496
2.005, 0.05156246484709893
2.0100000000000002, 0.05121240468328283
2.015, 0.050864879043862055
2.02, 0.05051986802944275
2.025, 0.05017735191323389
2.0300000000000002, 0.049837311139366604
2.035, 0.04949972632123496
2.04, 0.04916457823985141
2.045, 0.04883184784222274
2.05, 0.0485015162397432
2.055, 0.04817356470660404
2.06, 0.047847974678221654
2.065, 0.04752472774968272
2.07, 0.047203805674205346
2.075, 0.04688519036161783
2.08, 0.046568863876853404
2.085, 0.046254808438461456
2.09, 0.04594300641713493
2.095, 0.045633440334253574
2.1, 0.045326092860441994
2.105, 0.045020946814145604
2.11, 0.044717985160219235
2.115, 0.044417191008531906
2.12, 0.0441185476125879
2.125, 0.04382203836816036
2.13, 0.04352764681194041
2.1350000000000002, 0.043235356620202274
2.14, 0.042945151607479526
2.145, 0.04265701572525808
2.15, 0.042370933060682715
2.1550000000000002, 0.04208688783527521
2.16, 0.041804864403669324
2.165, 0.041524847252356556
2.17, 0.041246820998446995
2.1750000000000003, 0.040970770388441616
2.18, 0.0406966802970187
2.185, 0.04042453572583392
2.19, 0.04015432180233044
2.195, 0.0398860237785635
2.2, 0.03961962703003709
2.205, 0.039355117054552566
2.21, 0.03909247947106973
2.215, 0.03883170001857866
2.22, 0.03857276455498545
2.225, 0.03831565905600754
2.23, 0.03806036961408111
2.235, 0.037806882437280954
2.24, 0.03755518384825045
2.245, 0.037305260283142724
2.25, 0.037057098290573125
2.255, 0.036810684530582956
2.2600000000000002, 0.03656600577361294
2.265, 0.036323048899488265
2.27, 0.03608180089641309
2.275, 0.03584224885997641
2.2800000000000002, 0.035604379992167874
2.285, 0.0353681816004038
2.29, 0.03513364109656192
2.295, 0.034900745996028514
2.3000000000000003, 0.03466948391675323
2.305, 0.03443984257831447
2.31, 0.034211809800993344
2.315, 0.03398537350485967
2.32, 0.033760521708863754
2.325, 0.033537242529939996
2.33, 0.03331552418211906
2.335, 0.03309535497564753
2.34, 0.03287672331611959
2.345, 0.032659617703614176
2.35, 0.032444026731842907
2.355, 0.0322299390873067
2.36, 0.032017343548459205
2.365, 0.03180622898488049
2.37, 0.0315965843564581
2.375, 0.03138839871257684
2.38, 0.031181661191316136
2.3850000000000002, 0.030976361018655887
2.39, 0.03077248750769024
2.395, 0.030570030057849164
2.4, 0.030368978154127264
2.4050000000000002, 0.030169321366321895
2.41, 0.029971049348276806
2.415, 0.02977415183713485
2.42, 0.0295786186525977
2.4250000000000003, 0.02938443969619239
2.43, 0.029191604950545846
2.435, 0.029000104478666067
2.44, 0.02880992842323107
2.445, 0.028621067005884657
2.45, 0.028433510526538214
2.455, 0.02824724936268102
2.46, 0.02806227396869593
2.465, 0.027878574875182437
2.47, 0.0276961426882865
2.475, 0.027514968089036834
2.48, 0.0273350418326868
2.485, 0.027156354748065208
2.49, 0.02697889773693009
2.495, 0.026802661773331668
2.5, 0.026627637902980124
2.505, 0.0264538172426197
2.5100000000000002, 0.026281190979408994
2.515, 0.026109750370307647
2.52, 0.02593948674146822
2.525, 0.02577039148763453
2.5300000000000002, 0.025602456071546067
2.535, 0.025435672023347365
2.54, 0.025270030940003303
2.545, 0.025105524484720806
2.5500000000000003, 0.024942144386375494
2.555, 0.024779882438943655
2.56, 0.024618730500940374
2.565, 0.024458680494861888
2.57, 0.024299724406635012
2.575, 0.024141854285070662
2.58, 0.02398506224132209
2.585, 0.023829340448350094
2.59, 0.023674681140391854
2.595, 0.023521076612435226
2.6, 0.02336851921969802
2.605, 0.023217001377112686
2.61, 0.023066515558815656
2.615, 0.022917054297640637
2.62, 0.02276861018461836
2.625, 0.022621175868479924
2.63, 0.022474744055164798
2.6350000000000002, 0.022329307507334476
2.64, 0.02218485904388972
2.645, 0.022041391539492295
2.65, 0.021898897924092605
2.6550000000000002, 0.021757371182459715
2.66, 0.021616804353717805
2.665, 0.021477190530885634
2.67, 0.021338522860420518
2.6750000000000003, 0.021200794541767154
2.68, 0.021063998826910315
2.685, 0.020928129019931498
2.69, 0.020793178476570185
2.695, 0.02065914060378888
2.7, 0.02052600885934231
2.705, 0.02039377675135046
2.71, 0.02026243783787591
2.715, 0.020131985726504945
2.72, 0.02000241407393244
2.725, 0.019873716585550667
2.73, 0.01974588701504202
2.735, 0.01961891916397545
2.74, 0.019492806881406165
2.745, 0.01936754406348028
2.75, 0.019243124653041423
2.755, 0.019119542639242607
2.7600000000000002, 0.018996792057160036
2.765, 0.01887486698741219
2.77, 0.018753761555780835
2.775, 0.01863346993283681
2.7800000000000002, 0.018513986333568162
2.785, 0.018395305017012448
2.79, 0.018277420285891834
2.795, 0.018160326486252296
2.8000000000000003, 0.018044018007105173
2.805, 0.017928489280072325
2.81, 0.01781373477903549
2.815, 0.01769974901978701
2.82, 0.017586526559685126
2.825, 0.017474061997311975
2.83, 0.01736234997213464
2.835, 0.017251385164169273
2.84, 0.017141162293648354
2.845, 0.01703167612069087
2.85, 0.016922921444975526
2.855, 0.01681489310541685
2.86, 0.016707585979844317
2.865, 0.016600994984684078
2.87, 0.016495115074644143
2.875, 0.016389941242401593
2.88, 0.016285468518293385
2.8850000000000002, 0.01618169197000924
2.89, 0.016078606702287782
2.895, 0.01597620785661513
2.9, 0.015874490610926554
2.9050000000000002, 0.01577345017931003
2.91, 0.015673081811713202
2.915, 0.015573380793652619
2.92, 0.015474342445925668
2.9250000000000003, 0.015375962124325024
2.93, 0.015278235219355465
2.935, 0.015181157155953456
2.94, 0.015084723393209253
2.945, 0.014988929424091081
2.95, 0.014893770775172285
2.955, 0.014799243006360235
2.96, 0.014705341710628438
2.965, 0.014612062513750442
2.97, 0.014519401074035921
2.975, 0.014427353082069924
2.98, 0.01433591426045351
2.985, 0.014245080363546934
2.99, 0.01415484717721579
2.995, 0.014065210518577967
3.0, 0.013976166235754319
3.005, 0.01388771020762056
3.0100000000000002, 0.013799838343561317
3.015, 0.013712546583227169
3.02, 0.0136258308962929
3.025, 0.013539687282218346
3.0300000000000002, 0.01345411177001105
3.035, 0.013369100417991362
3.04, 0.013284649313559193
3.045, 0.013200754572962829
3.0500000000000003, 0.013117412341070342
3.055, 0.013034618791141882
3.06, 0.012952370124605029
3.065, 0.012870662570831453
3.0700000000000003, 0.012789492386915935
3.075, 0.012708855857456562
3.08, 0.012628749294337847
3.085, 0.012549169036514703
3.09, 0.012470111449799275
3.095, 0.01239157292664862
3.1, 0.01231354988595484
3.105, 0.01223603877283696
3.11, 0.012159036058434386
3.115, 0.01208253823970235
3.12, 0.012006541839208901
3.125, 0.01193104340493371
3.13, 0.011856039510068715
3.1350000000000002, 0.011781526752820301
3.14, 0.011707501756213297
3.145, 0.01163396116789661
3.15, 0.011560901659950254
3.1550000000000002, 0.011488319928694818
3.16, 0.011416212694501297
3.165, 0.011344576701603826
3.17, 0.011273408717913177
3.1750000000000003, 0.011202705534831959
3.18, 0.0111324639670718
3.185, 0.011062680852471642
3.19, 0.01099335305181763
3.1950000000000003, 0.010924477448664899
3.2, 0.010856050949160163
3.205, 0.01078807048186681
3.21, 0.010720532997590203
3.215, 0.01065343546920557
3.22, 0.010586774891487034
3.225, 0.010520548280937455
3.23, 0.010454752675620585
3.235, 0.010389385134994308
3.24, 0.010324442739744836
3.245, 0.010259922591623158
3.25, 0.010195821813282007
3.255, 0.010132137548114784
3.2600000000000002, 0.010068866960095487
3.265, 0.010006007233620254
3.27, 0.009943555573350032
3.275, 0.009881509204054442
3.2800000000000002, 0.009819865370457316
3.285, 0.009758621337083365
3.29, 0.009697774388105864
3.295, 0.009637321827195943
3.3000000000000003, 0.009577260977372824
3.305, 0.009517589180855988
3.31, 0.009458303798917444
3.315, 0.009399402211736187
3.3200000000000003, 0.00934088181825338
3.325, 0.009282740036029068
3.33, 0.009224974301099571
3.335, 0.00916758206783673
3.34, 0.009110560808807571
3.345, 0.009053908014635789
3.35, 0.008997621193863988
3.355, 0.008941697872817083
3.36, 0.008886135595467129
3.365, 0.008830931923298693
3.37, 0.008776084435176005
3.375, 0.008721590727210671
3.38, 0.008667448412630833
3.3850000000000002, 0.008613655121650894
3.39, 0.008560208501343092
3.395, 0.008507106215509408
3.4, 0.008454345944554954
3.4050000000000002, 0.008401925385362021
3.41, 0.008349842251165671
3.415, 0.00829809427142984
3.42, 0.008246679191724688
3.4250000000000003, 0.008195594773605042
3.43, 0.008144838794489632
3.435, 0.00809440904754135
3.44, 0.008044303341548507
3.4450000000000003, 0.00799451950080718
3.45, 0.00794505536500446
3.455, 0.007895908789102292
3.46, 0.007847077643222697
3.465, 0.0077985598125339724
3.47, 0.007750353197137429
3.475, 0.007702455711955375
3.48, 0.0076548652866193926
3.485, 0.007607579865360764
3.49, 0.0075605974069004695
3.495, 0.007513915884340724
3.5, 0.007467533285057376
3.505, 0.007421447610592975
3.5100000000000002, 0.0073756568765507525
3.515, 0.007330159112489708
3.52, 0.00728495236182009
3.525, 0.007240034681700224
3.5300000000000002, 0.007195404142933528
