Radial distance r (a.u.), Calculated helium wavefunction
0.005, 1.3279392025927106
0.01, 1.314746306999111
0.015, 1.3016978704178874
0.02, 1.2887923078466348
0.025, 1.276028045583262
0.03, 1.2634035214802266
0.035, 1.25091718517907
0.04, 1.238567498326141
0.045, 1.2263529347703497
0.05, 1.2142719807436921
0.055, 1.202323135025479
0.06, 1.1905049090908868
0.065, 1.1788158272446034
0.07, 1.1672544267402893
0.075, 1.1558192578864905
0.08, 1.1445088841396351
0.085, 1.133321882184816
0.09, 1.122256842004788
0.095, 1.1113123669379419
0.1, 1.1004870737256467
0.105, 1.0897795925496
0.11, 1.07918856705957
0.115, 1.068712654392136
0.12, 1.0583505251807963
0.125, 1.0481008635579576
0.13, 1.037962367149157
0.135, 1.0279337470600047
0.14, 1.0180137278561834
0.145, 1.0082010475368957
0.15, 0.9984944575021143
0.155, 0.9888927225140367
0.16, 0.9793946206529366
0.165, 0.9699989432679019
0.17, 0.9607044949226259
0.17500000000000002, 0.9515100933365943
0.18, 0.9424145693219763
0.185, 0.9334167667164021
0.19, 0.9245155423119813
0.195, 0.9157097657807144
0.2, 0.9069983195965814
0.20500000000000002, 0.8983800989545323
0.21, 0.889854011686544
0.215, 0.8814189781750243
0.22, 0.8730739312636552
0.225, 0.8648178161659779
0.23, 0.8566495903717697
0.23500000000000001, 0.8485682235515121
0.24, 0.8405726974589839
0.245, 0.8326620058322391
0.25, 0.8248351542930429
0.255, 0.817091160244955
0.26, 0.809429052770145
0.265, 0.8018478725251138
0.27, 0.7943466716354136
0.275, 0.7869245135894815
0.28, 0.7795804731317079
0.28500000000000003, 0.7723136361548428
0.29, 0.7651230995918159
0.295, 0.7580079713071087
0.3, 0.750967369987712
0.305, 0.7440004250338071
0.31, 0.7371062764492122
0.315, 0.7302840747316925
0.32, 0.723532980763179
0.325, 0.7168521657000225
0.33, 0.710240810863263
0.335, 0.703698107629057
0.34, 0.6972232573192598
0.34500000000000003, 0.6908154710922652
0.35000000000000003, 0.6844739698341066
0.355, 0.6781979840499214
0.36, 0.6719867537557643
0.365, 0.6658395283708839
0.37, 0.659755566610422
0.375, 0.6537341363786501
0.38, 0.6477745146627277
0.385, 0.6418759874270413
0.39, 0.6360378495081361
0.395, 0.6302594045102988
0.4, 0.6245399647017871
0.405, 0.618878850911754
0.41000000000000003, 0.613275392427874
0.41500000000000004, 0.6077289268947159
0.42, 0.6022388002128524
0.425, 0.5968043664387543
0.43, 0.5914249876854797
0.435, 0.586100034024142
0.44, 0.580828883386224
0.445, 0.5756109214667233
0.45, 0.5704455416281217
0.455, 0.5653321448052486
0.46, 0.5602701394109736
0.465, 0.5552589412427992
0.47000000000000003, 0.5502979733903279
0.47500000000000003, 0.5453866661436207
0.48, 0.5405244569024544
0.485, 0.5357107900864745
0.49, 0.530945117046261
0.495, 0.5262268959753039
0.5, 0.5215555918228828
0.505, 0.5169306762078661
0.51, 0.5123516273334345
0.515, 0.5078179299026928
0.52, 0.5033290750352423
0.525, 0.49888456018461746
0.53, 0.49448388905669216
0.535, 0.49012657152895683
0.54, 0.4858121235707202
0.545, 0.4815400671642408
0.55, 0.4773099302267354
0.555, 0.4731212465333084
0.56, 0.4689735556407748
0.5650000000000001, 0.46486640281239217
0.5700000000000001, 0.4607993389434643
0.5750000000000001, 0.4567719204878455
0.58, 0.4527837093853336
0.585, 0.44883427298992024
0.59, 0.4449231839989301
0.595, 0.44105002038302576
0.6, 0.43721436531706703
0.605, 0.4334158071118239
0.61, 0.42965393914654776
0.615, 0.4259283598023748
0.62, 0.422238672396572
0.625, 0.4185844851176069
0.63, 0.4149654109610441
0.635, 0.41138106766625077
0.64, 0.4078310776539181
0.645, 0.40431506796437183
0.65, 0.40083267019669394
0.655, 0.397383520448611
0.66, 0.39396725925717596
0.665, 0.3905835315402112
0.67, 0.387231986538519
0.675, 0.38391227775885145
0.68, 0.38062406291762246
0.685, 0.3773670038853621
0.6900000000000001, 0.3741407666319033
0.6950000000000001, 0.3709450211722987
0.7000000000000001, 0.367779441513447
0.705, 0.3646437056014317
0.71, 0.3615374952695669
0.715, 0.35846049618711945
0.72, 0.35541239780874473
0.725, 0.35239289332456947
0.73, 0.34940167961097407
0.735, 0.3464384571820129
0.74, 0.34350293014150546
0.745, 0.34059480613576765
0.75, 0.33771379630698845
0.755, 0.33485961524722424
0.76, 0.33203198095303865
0.765, 0.3292306147807359
0.77, 0.3264552414022229
0.775, 0.3237055887614595
0.78, 0.3209813880315097
0.785, 0.31828237357217387
0.79, 0.3156082828882098
0.795, 0.31295885658810957
0.8, 0.3103338383434585
0.805, 0.30773297484883844
0.81, 0.3051560157822913
0.8150000000000001, 0.30260271376631315
0.8200000000000001, 0.3000728243294002
0.8250000000000001, 0.297566105868109
0.8300000000000001, 0.2950823196096495
0.835, 0.2926212295749841
0.84, 0.29018260254244566
0.845, 0.2877662080118503
0.85, 0.2853718181691054
0.855, 0.2829992078513048
0.86, 0.2806481545123178
0.865, 0.2783184381888318
0.87, 0.2760098414668863
0.875, 0.27372214944885614
0.88, 0.2714551497208955
0.885, 0.2692086323208287
0.89, 0.2669823897064922
0.895, 0.2647762167245061
0.9, 0.26258991057948605
0.905, 0.26042327080367256
0.91, 0.2582760992269893
0.915, 0.2561481999475043
0.92, 0.2540393793023157
0.925, 0.2519494458388224
0.93, 0.24987821028640886
0.935, 0.24782548552851041
0.9400000000000001, 0.24579108657506873
0.9450000000000001, 0.2437748305353671
0.9500000000000001, 0.24177653659124462
0.9550000000000001, 0.23979602597067728
0.96, 0.23783312192172507
0.965, 0.23588764968683984
0.97, 0.2339594364775261
0.975, 0.2320483114493578
0.98, 0.2301541056773291
0.985, 0.22827665213155704
0.99, 0.22641578565330972
0.995, 0.22457134293137485
1.0, 0.22274316247874434
1.0050000000000001, 0.22093108460962355
1.01, 0.2191349514167634
1.0150000000000001, 0.21735460674909535
1.02, 0.21558989618967753
1.025, 0.21384066703394813
1.03, 0.21210676826826946
1.035, 0.21038805054877494
1.04, 0.2086843661805024
1.045, 0.20699556909681285
1.05, 0.20532151483909594
1.055, 0.20366206053674665
1.06, 0.20201706488742086
1.065, 0.20038638813756424
1.07, 0.19876989206319978
1.075, 0.1971674399509818
1.08, 0.19557889657951164
1.085, 0.19400412820089913
1.09, 0.1924430025225915
1.095, 0.19089538868942882
1.1, 0.18936115726596367
1.105, 0.18784018021900994
1.11, 0.1863323309004295
1.115, 0.18483748403015937
1.12, 0.18335551567946037
1.125, 0.18188630325440155
1.1300000000000001, 0.18042972547956043
1.135, 0.1789856623819512
1.1400000000000001, 0.1775539952751636
1.145, 0.17613460674372244
1.1500000000000001, 0.17472738062765375
1.155, 0.17333220200726168
1.16, 0.17194895718810752
1.165, 0.1705775336861951
1.17, 0.16921782021335374
1.175, 0.16786970666281537
1.18, 0.16653308409498854
1.185, 0.16520784472342365
1.19, 0.16389388190096146
1.195, 0.16259109010607087
1.2, 0.16129936492937028
1.205, 0.160018603060328
1.21, 0.15874870227413615
1.215, 0.15748956141876697
1.22, 0.15624108040219414
1.225, 0.15500316017979135
1.23, 0.15377570274189142
1.235, 0.15255861110151456
1.24, 0.15135178928225893
1.245, 0.1501551423063538
1.25, 0.14896857618286108
1.2550000000000001, 0.14779199789604827
1.26, 0.14662531539390106
1.2650000000000001, 0.14546843757679642
1.27, 0.14432127428631808
1.2750000000000001, 0.1431837362942252
1.28, 0.14205573529156273
1.285, 0.14093718387791515
1.29, 0.1398279955508018
1.295, 0.13872808469521036
1.3, 0.1376373665732675
1.305, 0.13655575731404532
1.31, 0.13548317390349998
1.315, 0.13441953417453945
1.32, 0.1333647567972272
1.325, 0.13231876126910433
1.33, 0.131281467905645
1.335, 0.13025279783083127
1.34, 0.12923267296785235
1.345, 0.1282210160299212
1.35, 0.12721775051121403
1.355, 0.1262228006779243
1.36, 0.12523609155943183
1.365, 0.12425754893958624
1.37, 0.12328709934810293
1.375, 0.12232467005206832
1.3800000000000001, 0.12137018904755542
1.385, 0.12042358505134712
1.3900000000000001, 0.11948478749276248
1.395, 0.11855372650559129
1.4000000000000001, 0.11763033292012805
1.405, 0.11671453825531211
1.41, 0.11580627471096071
1.415, 0.11490547516010967
1.42, 0.11401207314144375
1.425, 0.11312600285182575
1.43, 0.11224719913892273
1.435, 0.11137559749392043
1.44, 0.1105111340443352
1.445, 0.1096537455469114
1.45, 0.10880336938061184
1.455, 0.10795994353969596
1.46, 0.10712340662688204
1.465, 0.10629369784659963
1.47, 0.10547075699832394
1.475, 0.10465452446999239
1.48, 0.10384494123150724
1.485, 0.10304194882831604
1.49, 0.10224548937507269
1.495, 0.10145550554937935
1.5, 0.10067194058560117
1.5050000000000001, 0.09989473826876738
1.51, 0.09912384292853509
1.5150000000000001, 0.09835919943323891
1.52, 0.09760075318400846
1.5250000000000001, 0.09684845010895934
1.53, 0.09610223665745599
1.5350000000000001, 0.09536205979444698
1.54, 0.09462786699486629
1.545, 0.0938996062381063
1.55, 0.0931772260025569
1.555, 0.09246067526021338
1.56, 0.09174990347134689
1.565, 0.09104486057924353
1.57, 0.09034549700500491
1.575, 0.08965176364241491
1.58, 0.08896361185286561
1.585, 0.08828099346034497
1.59, 0.08760386074648907
1.595, 0.08693216644569099
1.6, 0.08626586374026844
1.605, 0.08560490625569216
1.61, 0.08494924805586901
1.615, 0.08429884363848465
1.62, 0.08365364793039984
1.625, 0.08301361628310419
1.6300000000000001, 0.08237870446822143
1.635, 0.08174886867307227
1.6400000000000001, 0.08112406549628716
1.645, 0.0805042519434711
1.6500000000000001, 0.07988938542292538
1.655, 0.07927942374141195
1.6600000000000001, 0.07867432509997646
1.665, 0.07807404808981414
1.67, 0.07747855168818847
1.675, 0.0768877952543983
1.68, 0.07630173852578913
1.685, 0.07572034161381579
1.69, 0.07514356500014915
1.695, 0.07457136953282795
1.7, 0.07400371642245926
1.705, 0.07344056723845707
1.71, 0.07288188390533433
1.715, 0.07232762869902895
1.72, 0.0717777642432778
1.725, 0.07123225350603406
1.73, 0.07069105979592168
1.735, 0.0701541467587348
1.74, 0.06962147837397706
1.745, 0.06909301895144071
1.75, 0.06856873312782413
1.7550000000000001, 0.0680485858633916
1.76, 0.06753254243866838
1.7650000000000001, 0.06702056845117506
1.77, 0.066512629812201
1.7750000000000001, 0.06600869274361262
1.78, 0.06550872377469966
1.7850000000000001, 0.06501268973905702
1.79, 0.06452055777150303
1.795, 0.0640322953050317
1.8, 0.06354787006780076
1.805, 0.06306725008015432
1.81, 0.06259040365167887
1.815, 0.06211729937829225
1.82, 0.06164790613936545
1.825, 0.06118219309488079
1.83, 0.060720129682615885
1.835, 0.060261685615364345
1.84, 0.05980683087818664
1.845, 0.05935553572569136
1.85, 0.05890777067934645
1.855, 0.058463506524823225
1.86, 0.05802271430936732
1.865, 0.057585365339200716
1.87, 0.05715143117695228
1.875, 0.05672088363911776
1.8800000000000001, 0.05629369479354717
1.885, 0.055869836956960205
1.8900000000000001, 0.05544928269249079
1.895, 0.055032004807255966
1.9000000000000001, 0.05461797634995594
1.905, 0.05420717060849619
1.9100000000000001, 0.05379956110763946
1.915, 0.05339512160668217
1.92, 0.052993826097155354
1.925, 0.05259564880055448
1.93, 0.05220056416608952
1.935, 0.05180854686846407
1.94, 0.05141957180567558
1.945, 0.05103361409684219
1.95, 0.0506506490800515
1.955, 0.050270652310233734
1.96, 0.049893599557057744
1.965, 0.049519466802850805
1.97, 0.04914823024053942
1.975, 0.04877986627161461
1.98, 0.04841435150411698
1.985, 0.0480516627506453
1.99, 0.04769177702638622
1.995, 0.04733467154716478
2.0, 0.04698032372751692
2.005, 0.046628711178781895
2.0100000000000002, 0.04627981170721472
2.015, 0.045933603312121166
2.02, 0.04559006418401006
2.025, 0.045249172702767106
2.0300000000000002, 0.04491090743584778
2.035, 0.04457524713648949
2.04, 0.0442421707419429
2.045, 0.043911657371721896
2.05, 0.043583686325871916
2.055, 0.04325823708325822
2.06, 0.04293528929986998
2.065, 0.042614822807144785
2.07, 0.04229681761030801
2.075, 0.04198125388673347
2.08, 0.0416681119843179
2.085, 0.041357372419874
2.09, 0.041049015877541735
2.095, 0.040743023207212965
2.1, 0.04043937542297619
2.105, 0.04013805370157582
2.11, 0.03983903938088711
2.115, 0.03954231395840874
2.12, 0.03924785908976963
2.125, 0.03895565658725146
2.13, 0.038665688418327966
2.1350000000000002, 0.03837793670421785
2.14, 0.03809238371845315
2.145, 0.037809011885462804
2.15, 0.03752780377917155
2.1550000000000002, 0.03724874212161094
2.16, 0.03697180978154776
2.165, 0.03669698977312388
2.17, 0.036424265254512686
2.1750000000000003, 0.036153619526586675
2.18, 0.03588503603160111
2.185, 0.035618498351889585
2.19, 0.03535399020857395
2.195, 0.035091495460286545
2.2, 0.03483099810190695
2.205, 0.03457248226330981
2.21, 0.03431593220812652
2.215, 0.03406133233251952
2.22, 0.033808667163969124
2.225, 0.033557921360072
2.23, 0.03330907970735206
2.235, 0.03306212712008464
2.24, 0.032817048639130424
2.245, 0.03257382943078292
2.25, 0.03233245478562705
2.255, 0.03209291011740867
2.2600000000000002, 0.03185518096191664
2.265, 0.03161925297587488
2.27, 0.031385111935846005
2.275, 0.031152743737146996
2.2800000000000002, 0.030922134392774154
2.285, 0.030693270032339556
2.29, 0.030466136901018532
2.295, 0.030240721358506313
2.3000000000000003, 0.030017009877987354
2.305, 0.029794989045112217
2.31, 0.029574645556986794
2.315, 0.0293559662211705
2.32, 0.029138937954684693
2.325, 0.028923547783031144
2.33, 0.02870978283921917
2.335, 0.02849763036280409
2.34, 0.028287077698934092
2.345, 0.02807811229740621
2.35, 0.027870721711732754
2.355, 0.02766489359821566
2.36, 0.027460615715030928
2.365, 0.02725787592132159
2.37, 0.027056662176299612
2.375, 0.026856962538356306
2.38, 0.026658765164182165
2.3850000000000002, 0.026462058307894935
2.39, 0.02626683032017607
2.395, 0.026073069647415133
2.4, 0.0258807648308638
2.4050000000000002, 0.025689904505797417
2.41, 0.025500477400683775
2.415, 0.025312472336361906
2.42, 0.02512587822522712
2.4250000000000003, 0.024940684070424532
2.43, 0.024756878965050855
2.435, 0.02457445209136328
2.44, 0.02439339271999596
2.445, 0.024213690209184756
2.45, 0.024035334003998047
2.455, 0.023858313635577114
2.46, 0.023682618720381566
2.465, 0.02350823895944337
2.47, 0.023335164137627592
2.475, 0.02316338412290001
2.48, 0.02299288886560273
2.485, 0.02282366839773499
2.49, 0.022655712832242488
2.495, 0.022489012362312776
2.5, 0.022323557260676703
2.505, 0.02215933787891814
2.5100000000000002, 0.021996344646788516
2.515, 0.02183456807152921
2.52, 0.02167399873719932
2.525, 0.02151462730401071
2.5300000000000002, 0.021356444507668416
2.535, 0.02119944115871831
2.54, 0.02104360814189982
2.545, 0.02088893641550581
2.5500000000000003, 0.020735417010747676
2.555, 0.020583041031126712
2.56, 0.020431799651811446
2.565, 0.020281684119020836
2.57, 0.020132685749413216
2.575, 0.01998479592948065
2.58, 0.01983800611494947
2.585, 0.019692307830185964
2.59, 0.019547692667607988
2.595, 0.019404152287101954
2.6, 0.01926167841544485
2.605, 0.019120262845732334
2.61, 0.018979897436811503
2.615, 0.01884057411271941
2.62, 0.018702284862126495
2.625, 0.018565021737785296
2.63, 0.018428776855984156
2.6350000000000002, 0.018293542396006213
2.64, 0.018159310599593054
2.645, 0.018026073770413573
2.65, 0.017893824273537775
2.6550000000000002, 0.017762554534914987
2.66, 0.01763225704085776
2.665, 0.017502924337529122
2.67, 0.01737454903043611
2.6750000000000003, 0.017247123783926857
2.68, 0.01712064132069257
2.685, 0.01699509442127433
2.69, 0.01687047592357402
2.695, 0.01674677872237002
2.7, 0.01662399576883712
2.705, 0.016502120070070982
2.71, 0.016381144688616706
2.715, 0.01626106274200199
2.72, 0.01614186740227427
2.725, 0.01602355189554216
2.73, 0.015906109501521184
2.735, 0.015789533553083265
2.74, 0.01567381743581089
2.745, 0.015558954587554652
2.75, 0.015444938497995069
2.755, 0.01533176270820866
2.7600000000000002, 0.01521942081023748
2.765, 0.015107906446662692
2.77, 0.014997213310182105
2.775, 0.014887335143191353
2.7800000000000002, 0.014778265737368967
2.785, 0.01466999893326493
2.79, 0.014562528619893213
2.795, 0.014455848734328038
2.8000000000000003, 0.014349953261303354
2.805, 0.014244836232816107
2.81, 0.014140491727733072
2.815, 0.014036913871401234
2.82, 0.013934096835261726
2.825, 0.013832034836466804
2.83, 0.013730722137500798
2.835, 0.013630153045804122
2.84, 0.013530321913400187
2.845, 0.01343122313652694
2.85, 0.013332851155270064
2.855, 0.01323520045320064
2.86, 0.013138265557015508
2.865, 0.013042041036180662
2.87, 0.012946521502578436
2.875, 0.012851701610156948
2.88, 0.012757576054583388
2.8850000000000002, 0.012664139572899967
2.89, 0.012571386943183107
2.895, 0.012479312984205166
2.9, 0.012387912555099998
2.9050000000000002, 0.012297180555030512
2.91, 0.012207111922859884
2.915, 0.012117701636825271
2.92, 0.012028944714214333
2.9250000000000003, 0.011940836211045032
2.93, 0.011853371221747616
2.935, 0.011766544878849892
2.94, 0.011680352352665053
2.945, 0.011594788850982222
2.95, 0.011509849618759603
2.955, 0.011425529937820549
2.96, 0.01134182512655217
2.965, 0.01125873053960639
2.97, 0.011176241567603992
2.975, 0.011094353636840682
2.98, 0.011013062208996319
2.985, 0.010932362780846187
2.99, 0.010852250883974998
2.995, 0.010772722084493456
3.0, 0.010693771982756908
3.005, 0.010615396213086815
3.0100000000000002, 0.0105375904434945
3.015, 0.010460350375407103
3.02, 0.010383671743396302
3.025, 0.01030755031490899
3.0300000000000002, 0.01023198189000031
3.035, 0.010156962301069291
3.04, 0.010082487412596453
3.045, 0.010008553120883763
3.0500000000000003, 0.009935155353796835
3.055, 0.009862290070509367
3.06, 0.009789953261249764
3.065, 0.009718140947049762
3.0700000000000003, 0.00964684917949562
3.075, 0.009576074040480843
3.08, 0.009505811641961551
3.085, 0.009436058125713733
3.09, 0.009366809663092501
3.095, 0.009298062454793423
3.1, 0.009229812730616063
3.105, 0.009162056749229442
3.11, 0.00909479079793915
3.115, 0.009028011192457153
3.12, 0.008961714276672784
3.125, 0.00889589642242627
3.13, 0.008830554029283948
3.1350000000000002, 0.008765683524315296
3.14, 0.00870128136187199
3.145, 0.00863734402336874
3.15, 0.008573868017066189
3.1550000000000002, 0.008510849877855251
3.16, 0.008448286167043765
3.165, 0.008386173472144367
3.17, 0.008324508406664887
3.1750000000000003, 0.00826328760989973
3.18, 0.008202507746723566
3.185, 0.008142165507386572
3.19, 0.008082257607311372
3.1950000000000003, 0.00802278078689171
3.2, 0.00796373181129277
3.205, 0.00790510747025331
3.21, 0.00784690457788931
3.215, 0.007789119972499329
3.22, 0.007731750516371458
3.225, 0.007674793095591852
3.23, 0.0076182446198551435
3.235, 0.007562102022275977
3.24, 0.007506362259202396
3.245, 0.007451022310030925
3.25, 0.0073960791770228546
3.255, 0.007341529885122211
3.2600000000000002, 0.007287371481775379
3.265, 0.007233601036751975
3.27, 0.007180215641967394
3.275, 0.007127212411306795
3.2800000000000002, 0.0070745884804504595
3.285, 0.007022341006700733
3.29, 0.0069704671688102385
3.295, 0.006918964166811752
3.3000000000000003, 0.006867829221849144
3.305, 0.006817059576010154
3.31, 0.006766652492160105
3.315, 0.006716605253777392
3.3200000000000003, 0.00666691516478991
3.325, 0.00661757954941333
3.33, 0.006568595751990178
3.335, 0.006519961136830746
3.34, 0.006471673088054834
3.345, 0.0064237290094352395
3.35, 0.006376126324242265
3.355, 0.006328862475089398
3.36, 0.006281934923780733
3.365, 0.00623534115115906
3.37, 0.0061890786569556485
3.375, 0.0061431449596410495
3.38, 0.006097537596277203
3.3850000000000002, 0.006052254122370612
3.39, 0.0060072921117268864
3.395, 0.005962649156306507
3.4, 0.005918322866081569
3.4050000000000002, 0.005874310868893832
3.41, 0.005830610810313863
3.415, 0.005787220353501447
3.42, 0.005744137179067108
3.4250000000000003, 0.005701358984934378
3.43, 0.005658883486204047
3.435, 0.005616708415018475
3.44, 0.005574831520427879
3.4450000000000003, 0.005533250568257148
3.45, 0.005491963340974013
3.455, 0.005450967637558241
3.46, 0.005410261273371781
3.465, 0.00536984208003012
3.47, 0.005329707905274559
3.475, 0.00528985661284559
3.48, 0.005250286082357313
3.485, 0.005210994209172775
3.49, 0.005171978904280404
3.495, 0.005133238094171374
3.5, 0.00509476972071809
3.505, 0.005056571741053423
3.5100000000000002, 0.005018642127451235
3.515, 0.004980978867207542
3.52, 0.004943579962522799
3.525, 0.0049064434303851805
3.5300000000000002, 0.004869567302454708
