Temperature,Reaction rate Au [mol / (m2 s)],Reaction rate Pt [mol / (m2 s)],Reaction rate Rh [mol / (m2 s)]
100.0,8.483970011012268e-37,5.648442036775825e-53,7.564304607133225e-72
101.90190190190191,1.8530328976271522e-36,1.0640156018337958e-51,1.5225497838085736e-70
103.8038038038038,3.9330942630866954e-36,1.7998872327495293e-50,2.74534696686164e-69
105.70570570570571,8.12500971283448e-36,2.7500621218417497e-49,4.4609266479450185e-68
107.6076076076076,1.635970144864736e-35,3.815779344824256e-48,6.568278636610409e-67
109.50950950950951,3.214912291660232e-35,4.832238517402913e-47,8.808597177903499e-66
111.41141141141141,6.173704620083537e-35,5.611380777612188e-46,1.0811063136828529e-64
113.31331331331332,1.1598716106866738e-34,6.001265946639578e-45,1.2197611802522926e-63
115.21521521521521,2.1341868083436066e-34,5.935237352052712e-44,1.2703876299133097e-62
117.11711711711712,3.849939196489464e-34,5.44892372407069e-43,1.2261552241721134e-61
119.01901901901903,6.815324951766124e-34,4.660261755572377e-42,1.1007454624052935e-60
120.92092092092092,1.1849960743916304e-33,3.7255369560122407e-41,9.222431292887519e-60
122.82282282282281,2.0253839264635675e-33,2.7925986417015196e-40,7.2345892119894734e-59
124.72472472472472,3.405636238130123e-33,1.96855823030837e-39,5.329667806030303e-58
126.62662662662663,5.637797985203563e-33,1.308610125791472e-38,3.6977158667774235e-57
128.52852852852854,9.194795611956659e-33,8.224804129771303e-38,2.422538108365388e-56
130.43043043043042,1.478357194166293e-32,4.899583508015684e-37,1.5024515539041092e-55
132.33233233233233,2.3447067079536963e-32,2.7727765619122565e-36,8.84198145290713e-55
134.23423423423424,3.6704684894932365e-32,1.4939621312484666e-35,4.948644924975772e-54
136.13613613613614,5.674351043950796e-32,7.679399612788322e-35,2.6395187789372434e-53
138.03803803803805,8.667571098790794e-32,3.773310723672892e-34,1.3444009214526674e-52
139.93993993993993,1.3088133184121655e-31,1.7755143827985457e-33,6.551115906496872e-52
141.84184184184184,1.9546015769576243e-31,8.01471238652682e-33,3.059547810287891e-51
143.74374374374375,2.88821520241989e-31,3.4763982752897293e-32,1.371787411730944e-50
145.64564564564563,4.2244695885352185e-31,1.4511996259329485e-31,5.914225481439102e-50
147.54754754754754,6.1186754516278274e-31,5.838804302289921e-31,2.4555486854241372e-49
149.44944944944945,8.779055187556982e-31,2.267409372261607e-30,9.832488253914445e-49
151.35135135135135,1.2482386963460471e-30,8.50989843868884e-30,3.802206968278863e-48
153.25325325325326,1.7593559463701492e-30,3.0907029116132325e-29,1.421769741388322e-47
155.15515515515517,2.458982888556746e-30,1.087554744724215e-28,5.147307351441965e-47
157.05705705705705,3.409068893496607e-30,3.7119534820163283e-28,1.806335471215058e-46
158.95895895895896,4.6894394152560934e-30,1.230221633956856e-27,6.151342852687119e-46
160.86086086086087,6.402231669109402e-30,3.963164393425048e-27,2.0349673162149086e-45
162.76276276276275,8.677246627920706e-30,1.2422378327491062e-26,6.546392817902065e-45
164.66466466466466,1.1678366198460373e-29,3.792065872127848e-26,2.0498616948494834e-44
166.56656656656656,1.5611201179160674e-29,1.128337893503408e-25,6.253547779575977e-44
168.46846846846847,2.0732153102174663e-29,3.2753532058130484e-25,1.8603352083490792e-43
170.37037037037038,2.735909121677375e-29,9.282744781374711e-25,5.401135163912994e-43
172.2722722722723,3.588386455368884e-29,2.5705021697054857e-24,1.5316449515555255e-42
174.17417417417417,4.678688808159725e-29,6.959646539839476e-24,4.2456598669191295e-42
176.07607607607608,6.065406127478698e-29,1.8436078162441763e-23,1.1512421513200608e-41
177.97797797797796,7.819629679051006e-29,4.781082928614509e-23,3.055830170249763e-41
179.87987987987987,1.0027195623138558e-28,1.2145172442732378e-22,7.945596089793249e-41
181.78178178178177,1.2791250896038632e-28,3.0235852375441585e-22,2.025069302461031e-40
183.68368368368368,1.6235174845611614e-28,7.380407046131612e-22,5.062198571775055e-40
185.5855855855856,2.0505891855378612e-28,1.767062942030656e-21,1.2418897153714337e-39
187.4874874874875,2.5777611892152758e-28,4.151311518508717e-21,2.991711018232296e-39
189.3893893893894,3.2256037508305726e-28,9.571948454771466e-21,7.080879902841426e-39
191.2912912912913,4.018307730311687e-28,2.1666430852305898e-20,1.6474587131645566e-38
193.1931931931932,4.984210718031183e-28,4.815094434857599e-20,3.7698260656977233e-38
195.09509509509508,6.156382191387244e-28,1.0506964593229577e-19,8.488260879151593e-38
196.99699699699698,7.573272053550135e-28,2.251095414331455e-19,1.8815240425529936e-37
198.8988988988989,9.279426987005181e-28,4.734860910904708e-19,4.1076149277110835e-37
200.8008008008008,1.1326279115646724e-27,9.775359567068256e-19,8.835811158467866e-37
202.7027027027027,1.3773011508954495e-27,1.980385391950787e-18,1.87353012500432e-36
204.60460460460462,1.668750507920607e-27,3.935532181263438e-18,3.917478025533827e-36
206.50650650650653,2.0147371416914047e-27,7.668485319752867e-18,8.080751613778957e-36
208.4084084084084,2.4241076080073754e-27,1.4644022615288375e-17,1.644969283963412e-35
210.3103103103103,2.9069156798911098e-27,2.7392635628975594e-17,3.3058289438133684e-35
212.2122122122122,3.474554097935338e-27,5.0165468547540266e-17,6.560993889358236e-35
214.1141141141141,4.139896678534599e-27,8.989989632440102e-17,1.2863831614839992e-34
216.016016016016,4.917451195249751e-27,1.575826034327467e-16,2.49242561472143e-34
217.91791791791792,5.8235234333674004e-27,2.70088004178783e-16,4.773753860091846e-34
219.81981981981983,6.876392800153826e-27,4.525434963254904e-16,9.040947401390209e-34
221.72172172172174,8.096499853430969e-27,7.412307990709071e-16,1.69359532589419e-33
223.62362362362364,9.506646089000168e-27,1.186983039848212e-15,3.1388353770624324e-33
225.52552552552552,1.11322063032046e-26,1.8589952405317712e-15,5.757155093891821e-33
227.42742742742743,1.3001353820666044e-26,2.8489482242306573e-15,1.0453006081589504e-32
229.32932932932934,1.5145298849075533e-26,4.275364470872008e-15,1.8792215513409416e-32
231.23123123123122,1.7598540192999898e-26,6.288169757540794e-15,3.345987317619822e-32
233.13313313313313,2.0399130527129042e-26,9.073514630769421e-15,5.901775419253e-32
235.03503503503504,2.358895539638657e-26,1.2858994784371491e-14,1.0314599953669151e-31
236.93693693693695,2.721402607602179e-26,1.7919479017449332e-14,1.7866088087261656e-31
238.83883883883883,3.13247863893616e-26,2.4583794687384138e-14,3.067657842571936e-31
240.74074074074073,3.597643354448907e-26,3.324253119082436e-14,5.222455930996483e-31
242.64264264264264,4.122925301392565e-26,4.43572089219033e-14,8.816988995849635e-31
244.54454454454455,4.714896744357589e-26,5.84710359381461e-14,1.4764813960789165e-30
246.44644644644646,5.380709953894939e-26,7.622144859217514e-14,2.4528993758096443e-30
248.34834834834834,6.128134883816088e-26,9.835461369861574e-14,4.043476821968586e-30
250.25025025025025,6.965598224261278e-26,1.2574206214681156e-13,6.615012053187001e-30
252.15215215215215,7.902223813774071e-26,1.5939962739926296e-13,1.0741908295376354e-29
254.05405405405406,8.947874389794678e-26,2.005088750185454e-13,1.7317284272516516e-29
255.95595595595594,1.0113194653196906e-25,2.5044122842228933e-13,2.7720173921830077e-29
257.8578578578579,1.1409655618766697e-25,3.1078501879759594e-13,4.4065442409445817e-29
259.75975975975973,1.284960021985917e-25,3.8337571143951015e-13,6.957489202287393e-29
261.6616616616617,1.4446290131902897e-25,4.703295853530925e-13,1.0912479676425575e-28
263.56356356356355,1.6213953775942142e-25,5.740811670281541e-13,1.7004868515350398e-28
265.46546546546546,1.816783546005082e-25,6.974247425570387e-13,2.6330715832278244e-28
267.36736736736736,2.0324245613208453e-25,8.435602946844468e-13,4.051823511105127e-28
269.2692692692693,2.2700612063127263e-25,1.0161442330587663e-12,6.197179631863397e-28
271.1711711711712,2.53155323065557e-25,1.2193453070464158e-12,9.422127971383666e-28
273.07307307307303,2.8188826717775858e-25,1.457906111118591e-12,1.4241946488716156e-27
274.974974974975,3.1341592638363807e-25,1.7372106131363456e-12,2.1404630252526407e-27
276.87687687687685,3.479625928879853e-25,2.0633581559175135e-12,3.1990077108763384e-27
278.7787787787788,3.857664344020146e-25,2.4432444023032526e-12,4.754904196843948e-27
280.68068068068067,4.270800578235158e-25,2.884649713550445e-12,7.029680477646357e-27
282.5825825825826,4.7217107922182685e-25,3.396335470238717e-12,1.033817380680817e-26
284.4844844844845,5.213226994519666e-25,3.988148863946037e-12,1.5125590661758452e-26
286.3863863863864,5.748342847066277e-25,4.67113670666272e-12,2.2018399587552738e-26
288.2882882882883,6.330219513008001e-25,5.457668823203376e-12,3.189388999067012e-26
290.19019019019015,6.962191539718679e-25,6.3615716096751944e-12,4.597480308014715e-26
292.0920920920921,7.647772769680192e-25,7.3982723582816e-12,6.59574885118799e-26
293.99399399399397,8.390662271895018e-25,8.584954965308664e-12,9.418469331831941e-26
295.89589589589593,9.19475028641174e-25,9.940727654982372e-12,1.3387751300836064e-25
297.7977977977978,1.0064124174500982e-24,1.1486803366903538e-11,1.894454336085582e-25
299.6996996996997,1.1003074366995602e-24,1.3246693468914698e-11,2.668990229282912e-25
301.6016016016016,1.201610030329823e-24,1.524641547042039e-11,3.743970050418125e-25
303.5035035035035,1.3107916353569623e-24,1.751471542333287e-11,5.229685628566652e-25
305.4054054054054,1.4283457716637122e-24,2.008330570885144e-11,7.27463237296881e-25
307.30730730730727,1.5547886286204524e-24,2.2987118918160806e-11,1.00779531236539e-24
309.20920920920923,1.690659647800364e-24,2.626457854377857e-11,1.3905678053665053e-24
311.1111111111111,1.8365221010600863e-24,2.9957887205639557e-11,1.9111839858838737e-24
313.01301301301305,1.9929636632662207e-24,3.4113333142030275e-11,2.61658277267448e-24
314.9149149149149,2.1605969789580667e-24,3.878161570011258e-11,3.568769667260572e-24
316.8168168168168,2.340060222248921e-24,4.401819056397895e-11,4.849358594728531e-24
318.7187187187187,2.532017649280723e-24,4.9883635459900024e-11,6.565393954931516e-24
320.6206206206206,2.7371601425614965e-24,5.644403707864658e-11,8.856788513181532e-24
322.52252252252254,2.956205746529828e-24,6.377139995344194e-11,1.1905794064608615e-23
324.4244244244244,3.1899001937070998e-24,7.194407802918685e-11,1.594902115972112e-23
326.32632632632635,3.439017420815762e-24,8.104722965415643e-11,2.129264521145184e-23
328.2282282282282,3.7043600742596006e-24,9.117329671922635e-11,2.8331583299428073e-23
330.13013013013017,3.9867600043819384e-24,1.0242250866201756e-10,3.7573603983089676e-23
332.032032032032,4.287078747936371e-24,1.1490341204398077e-10,4.966954733939913e-23
333.93393393393393,4.60620799822672e-24,1.2873342639746404e-10,6.545109116189824e-23
335.83583583583584,4.945070062392656e-24,1.4403942702722692e-10,8.59778098519675e-23
337.73773773773775,5.3046183053403095e-24,1.6095835543656674e-10,1.125956443694095e-22
339.63963963963965,5.6858375798389564e-24,1.796378580323885e-10,1.470093455538885e-22
341.5415415415415,6.0897446423277916e-24,2.0023695374603356e-10,1.9137198175065936e-22
343.44344344344347,6.5173885539998205e-24,2.2292673118758565e-10,2.4839522947470734e-22
345.3453453453453,6.969851066753261e-24,2.478910759306361e-10,3.2148490951502597e-22
347.2472472472473,7.4482469936249e-24,2.7532742850225513e-10,4.1490710957114336e-22
349.14914914914914,7.953724563342887e-24,3.054475736289271e-10,5.33991270161743e-22
351.05105105105105,8.4874657586613e-24,3.384784612639396e-10,6.853778282063792e-22
352.95295295295296,9.050686638162187e-24,3.7466305989449803e-10,8.773194409069464e-22
354.85485485485486,9.644637641235021e-24,4.14261242598488e-10,1.1200464838076112e-21
356.7567567567568,1.0270603875967995e-23,4.5755070629060516e-10,1.4262094680069731e-21
358.6586586586587,1.0929905389708176e-23,5.048279245658223e-10,1.8114132941027694e-21
360.56056056056053,1.1623897422073325e-23,5.564091345151439e-10,2.2948609016142413e-21
362.46246246246244,1.2353970640219615e-23,6.126313578535136e-10,2.900126935359499e-21
364.36436436436435,1.3121551356194585e-23,6.738534566634203e-10,3.656085594157785e-21
366.26626626626626,1.3928101726226922e-23,7.404572240195048e-10,4.5980209191350754e-21
368.16816816816817,1.4775119931827542e-23,8.128485097195982e-10,5.768952493680285e-21
370.0700700700701,1.56641403425993e-23,8.914583813057701e-10,7.221214948341298e-21
371.971971971972,1.6596733660674752e-23,9.767443205152606e-10,9.018335884895979e-21
373.8738738738739,1.7574507046722032e-23,1.0691914552553882e-09,1.1237263958200314e-20
375.7757757757758,1.8599104227482698e-23,1.169313827148235e-09,1.3971006997417835e-20
377.67767767767765,1.967220558482282e-23,1.2776556946403343e-09,1.7331749337517414e-20
379.57957957957956,2.0795528226302718e-23,1.3947928716192311e-09,2.145452810875873e-20
381.48148148148147,2.197082603728729e-23,1.5213341014222918e-09,2.6501560252187485e-20
383.3833833833834,2.3199889714640286e-23,1.6579224660630622e-09,3.2667325664819114e-20
385.2852852852853,2.4484546782064987e-23,1.8052368304370684e-09,4.0184527318280484e-20
387.1871871871872,2.5826661587169036e-23,1.9639933212002216e-09,4.9331066646803357e-20
389.0890890890891,2.7228135280354237e-23,2.1349468399408114e-09,6.043819219224816e-20
390.990990990991,2.8690905775643053e-23,2.3188926101861796e-09,7.390000167426588e-20
392.8928928928929,3.0216947693575084e-23,2.516667757701381e-09,9.018450259486835e-20
394.79479479479477,3.180827228632079e-23,2.7291529234436257e-09,1.0984646448520569e-19
396.6966966966967,3.3466927345174235e-23,2.9572739084365235e-09,1.3354232728116128e-19
398.5985985985986,3.51949970906038e-23,3.202003349717449e-09,1.6204746542455054e-19
400.5005005005005,3.6994602045050915e-23,3.4643624263907154e-09,1.9627614650901993e-19
402.4024024024024,3.8867898888684455e-23,3.745422594686496e-09,2.3730456703691343e-19
404.3043043043043,4.081708029832633e-23,4.046307350777494e-09,2.863973965715059e-19
406.2062062062062,4.2844374769780957e-23,4.3681940199437055e-09,3.4503831574021706e-19
408.1081081081081,4.495204642381028e-23,4.712315570493831e-09,4.1496509368820274e-19
410.01001001001003,4.71423947960073e-23,5.079962450651607e-09,4.982098172574919e-19
411.9119119119119,4.941775461083323e-23,5.472484446391047e-09,5.97144957976068e-19
413.8138138138138,5.1780495540090444e-23,5.89129255795449e-09,7.145360445291355e-19
415.7157157157157,5.423302194611704e-23,6.337860892508748e-09,8.536017984433775e-19
417.6176176176176,5.677777260999214e-23,6.813728570083088e-09,1.018082689984216e-18
419.5195195195195,5.941722044505408e-23,7.320501639582126e-09,1.2123189805367783e-18
421.4214214214214,6.215387219603909e-23,7.8598550012803e-09,1.4413394378591564e-18
423.32332332332334,6.499026812415384e-23,8.433534331764566e-09,1.7109620424578433e-18
425.22522522522524,6.792898167840548e-23,9.043358006806759e-09,2.027908147901502e-18
427.12712712712715,7.097261915351434e-23,9.691219017101295e-09,2.3999317161731126e-18
429.029029029029,7.412381933474249e-23,1.0379086871193688e-08,2.8359654222451946e-18
430.9309309309309,7.73852531299779e-23,1.1109009479247498e-08,3.3462856110889533e-18
432.8328328328328,8.075962318941105e-23,1.1883115010535148e-08,3.942698296507796e-18
434.73473473473473,8.424966351315744e-23,1.2703613716696854e-08,4.638748615799418e-18
436.63663663663664,8.785813904716677e-23,1.357279971186601e-08,5.4499563986439784e-18
438.53853853853855,9.158784526777894e-23,1.449305269971541e-08,6.3940807742190015e-18
440.44044044044045,9.544160775527523e-23,1.546683963631335e-08,7.49141702884752e-18
442.34234234234236,9.942228175678539e-23,1.649671631638961e-08,8.765129239071059e-18
444.2442442442442,1.03532751738908e-22,1.758532886918095e-08,1.0241622543561944e-17
446.1461461461461,1.0777593093040292e-22,1.8735415148446625e-08,1.195095928348011e-17
448.04804804804803,1.1215476085531644e-22,1.994980599949363e-08,1.392732363655259e-17
449.94994994994994,1.1667221085690077e-22,2.1231426384131543e-08,1.620953979722636e-17
451.85185185185185,1.2133127761268896e-22,2.2583296342353588e-08,1.884164921567751e-17
453.75375375375376,1.2613498464108103e-22,2.4008531767214418e-08,2.187355290434897e-17
455.65565565565566,1.3108638179980983e-22,2.5510344966820587e-08,2.5361725354180764e-17
457.5575575575576,1.361885447766365e-22,2.7092044984555945e-08,2.9370007176048016e-17
459.4594594594595,1.4144457457263798e-22,2.8757037645616456e-08,3.397048419845688e-17
461.36136136136133,1.4685759697844024e-22,3.0508825294598065e-08,3.924446141271984e-17
463.26326326326324,1.524307620437542e-22,3.235100618527874e-08,4.5283540864135637e-17
465.16516516516515,1.5816724354055718e-22,3.428727347981049e-08,5.219081334474168e-17
467.06706706706706,1.6407023842028309e-22,3.6321413810309206e-08,6.00821745527234e-17
468.96896896896897,1.7014296626535135e-22,3.845730535126448e-08,6.908777724829439e-17
470.8708708708709,1.7638866873539005e-22,4.069891534629821e-08,7.935363185871972e-17
472.7727727727728,1.8281060900848954e-22,4.3050297027534874e-08,9.104336896911341e-17
474.6746746746747,1.8941207121781701e-22,4.551558586026966e-08,1.0434017818371021e-16
476.5765765765766,1.9619635988393651e-22,4.809899503966893e-08,1.1944893895772967e-16
478.47847847847845,2.0316679934315066e-22,5.080481015994618e-08,1.3659856018583069e-16
480.38038038038036,2.1032673317219993e-22,5.36373829698727e-08,1.5604454659290555e-16
482.28228228228227,2.1767952360963004e-22,5.660112412155382e-08,1.7807181130996735e-16
484.1841841841842,2.2522855097415307e-22,5.970049481225714e-08,2.0299775543558632e-16
486.0860860860861,2.329772130803065e-22,6.293999721167509e-08,2.31175636885272e-16
487.987987987988,2.409289246517191e-22,6.632416355948669e-08,2.629982524211467e-16
489.8898898898899,2.490871167322907e-22,6.985754381046833e-08,2.989019584357416e-16
491.7917917917918,2.574552360955743e-22,7.354469169682243e-08,3.39371057840606e-16
493.6936936936937,2.660367446526604e-22,7.739014906997692e-08,3.8494258228664683e-16
495.59559559559557,2.748351188588446e-22,8.13984283769814e-08,4.362115009222288e-16
497.4974974974975,2.838538491193644e-22,8.557399312000029e-08,4.938363889816636e-16
499.3993993993994,2.9309643919448034e-22,8.992123614145777e-08,5.585455916939786e-16
501.3013013013013,3.025664056041685e-22,9.444445557242781e-08,6.311439213146785e-16
503.2032032032032,3.12267277032698e-22,9.914782827811827e-08,7.125199275151631e-16
505.1051051051051,3.222025937333458e-22,1.0403538063217365e-07,8.0365378391987475e-16
507.007007007007,3.3237590693350527e-22,1.0911095645134896e-07,9.056258362642776e-16
508.9089089089089,3.4279077824044086e-22,1.1437818192439891e-07,1.0196258604618886e-15
510.81081081081084,3.534507790479256e-22,1.198404273741899e-07,1.1469630818192657e-15
512.7127127127127,3.643594899440033e-22,1.2550076570073493e-07,1.2890770097296445e-15
514.6146146146145,3.7552050012010736e-22,1.3136192736560907e-07,1.4475491454115379e-15
516.5165165165165,3.869374067817597e-22,1.3742625179574017e-07,1.6241156236439397e-15
518.4184184184185,3.9861381456106835e-22,1.4369563510757617e-07,1.820680852987366e-15
520.3203203203203,4.105533349312438e-22,1.501714740819397e-07,2.0393322226760153e-15
522.2222222222222,4.227595856233404e-22,1.5685460635622048e-07,2.2823559482232768e-15
524.1241241241241,4.352361900454207e-22,1.6374524684480775e-07,2.5522541318059882e-15
526.0260260260261,4.479867767043466e-22,1.7084292045171872e-07,2.851763117686184e-15
527.927927927928,4.61014978630385e-22,1.7814639120191246e-07,3.1838732272968293e-15
529.8298298298298,4.7432443280482055e-22,1.8565358799074388e-07,3.5518499631637846e-15
531.7317317317318,4.879187795907437e-22,1.933615272349471e-07,3.959256775564981e-15
533.6336336336336,5.018016621671939e-22,2.0126623280411097e-07,4.4099794907420255e-15
535.5355355355355,5.1597672596683935e-22,2.0936265371911255e-07,4.9082525045869804e-15
537.4374374374374,5.304476181173314e-22,2.1764458022357456e-07,5.458686851023296e-15
539.3393393393394,5.452179868865156e-22,2.2610455896592608e-07,6.06630025980106e-15
